0.0	-10.898	-0.059
0.0005	-10.898	-0.058
0.001	-10.898	-0.068
0.0015	-10.898	-0.076
0.002	-10.898	-0.088
0.0025	-10.898	-0.087
0.003	-10.898	-0.072
0.0035	-10.898	-0.050
0.004	-10.898	-0.053
0.0045	-10.898	-0.056
0.005	-10.898	-0.048
0.0055	-10.898	-0.057
0.006	-10.898	-0.030
0.0065	-10.898	-0.015
0.007	-10.898	-0.001
0.0075	-10.898	0.029
0.008	-10.898	0.023
0.0085	-10.898	0.027
0.009	-10.898	0.014
0.0095	-10.898	0.034
0.01	-10.898	0.046
0.0105	-10.898	0.049
0.011	-10.898	0.031
0.0115	-10.898	0.014
0.012	-10.898	0.006
0.0125	-10.898	0.007
0.013	-10.898	0.013
0.0135	-10.898	0.009
0.014	-10.898	0.004
0.0145	-10.898	-0.008
0.015	-10.898	-0.025
0.0155	-10.898	-0.035
0.016	-10.898	-0.069
0.0165	-10.898	-0.079
0.017	-10.898	-0.072
0.0175	-10.898	-0.077
0.018	-10.898	-0.082
0.0185	-10.898	-0.083
0.019	-10.898	-0.079
0.0195	-10.898	-0.064
0.02	-10.898	-0.045
0.0205	-10.898	-0.038
0.021	-10.898	-0.049
0.0215	-10.898	-0.054
0.022	-10.898	-0.064
0.0225	-10.898	-0.058
0.023	-10.898	-0.039
0.0235	-10.898	-0.033
0.024	-10.898	-0.012
0.0245	-10.898	0.013
0.025	-10.898	0.001
0.0255	-10.898	-0.004
0.026	-10.898	0.002
0.0265	-10.898	0.024
0.027	-10.898	0.043
0.0275	-10.898	0.030
0.028	-10.898	0.013
0.0285	-10.898	0.007
0.029	-10.898	0.031
0.0295	-10.898	0.015
0.03	-10.898	0.013
0.0305	-10.898	0.002
0.031	-10.898	0.017
0.0315	-10.898	-0.016
0.032	-10.898	-0.024
0.0325	-10.898	-0.050
0.033	-10.898	-0.078
0.0335	-10.898	-0.071
0.034	-10.898	-0.067
0.0345	-10.898	-0.072
0.035	-10.898	-0.069
0.0355	-10.898	-0.072
0.036	-10.898	-0.071
0.0365	-10.898	-0.062
0.037	-10.898	-0.054
0.0375	-10.898	-0.054
0.038	-10.898	-0.062
0.0385	-10.898	-0.055
0.039	-10.898	-0.034
0.0395	-10.898	-0.016
0.04	-10.898	0.004
0.0405	-10.898	-0.002
0.041	-10.898	0.017
0.0415	-10.898	0.002
0.042	-10.898	0.000
0.0425	-10.898	0.011
0.043	-10.898	0.017
0.0435	-10.898	0.043
0.044	-10.898	0.040
0.0445	-10.898	0.041
0.045	-10.898	0.032
0.0455	-10.898	0.036
0.046	-10.898	0.032
0.0465	-10.898	0.019
0.047	-10.898	0.013
0.0475	-10.898	0.001
0.048	-10.898	-0.038
0.0485	-10.898	-0.062
0.049	-10.898	-0.068
0.0495	-10.898	-0.074
0.05	-10.898	-0.091
0.0505	-10.898	-0.057
0.051	-10.898	-0.058
0.0515	-10.898	-0.073
0.052	-10.898	-0.073
0.0525	-10.898	-0.068
0.053	-10.898	-0.066
0.0535	-10.898	-0.059
0.054	-10.898	-0.051
0.0545	-10.898	-0.060
0.055	-10.898	-0.053
0.0555	-10.898	-0.047
0.056	-10.898	-0.023
0.0565	-10.898	-0.015
0.057	-10.898	-0.017
0.0575	-10.898	0.006
0.058	-10.898	0.011
0.0585	-10.898	0.013
0.059	-10.898	0.011
0.0595	-10.898	0.015
0.06	-10.898	0.029
0.0605	-10.898	0.027
0.061	-10.898	0.026
0.0615	-10.898	0.027
0.062	-10.898	0.012
0.0625	-10.898	0.013
0.063	-10.898	0.012
0.0635	-10.898	-0.001
0.064	-10.898	-0.004
0.0645	-10.898	-0.027
0.065	-10.898	-0.052
0.0655	-10.898	-0.055
0.066	-10.898	-0.074
0.0665	-10.898	-0.072
0.067	-10.898	-0.060
0.0675	-10.898	-0.055
0.068	-10.898	-0.063
0.0685	-10.898	-0.078
0.069	-10.898	-0.084
0.0695	-10.898	-0.069
0.07	-10.898	-0.048
0.0705	-10.898	-0.049
0.071	-10.898	-0.048
0.0715	-10.898	-0.065
0.072	-10.898	-0.057
0.0725	-10.898	-0.038
0.073	-10.898	-0.019
0.0735	-10.898	-0.013
0.074	-10.898	-0.005
0.0745	-10.898	0.015
0.075	-10.898	0.001
0.0755	-10.898	0.004
0.076	-10.898	0.009
0.0765	-10.898	0.026
0.077	-10.898	0.038
0.0775	-10.898	0.021
0.078	-10.898	0.019
0.0785	-10.898	0.010
0.079	-10.898	0.003
0.0795	-10.898	0.009
0.08	-10.898	0.013
0.0805	-10.898	0.010
0.081	-10.898	-0.006
0.0815	-10.898	-0.016
0.082	-10.898	-0.034
0.0825	-10.898	-0.049
0.083	-10.898	-0.065
0.0835	-10.898	-0.056
0.084	-10.898	-0.063
0.0845	-10.898	-0.073
0.085	-10.898	-0.067
0.0855	-10.898	-0.067
0.086	-10.898	-0.073
0.0865	-10.898	-0.060
0.087	-10.898	-0.052
0.0875	-10.898	-0.047
0.088	-10.898	-0.050
0.0885	-10.898	-0.053
0.089	-10.898	-0.027
0.0895	-10.898	-0.007
0.09	-10.898	-0.012
0.0905	-10.898	-0.005
0.091	-10.898	0.022
0.0915	-10.898	0.018
0.092	-10.898	0.013
0.0925	-10.898	0.012
0.093	-10.898	0.016
0.0935	-10.898	0.030
0.094	-10.898	0.044
0.0945	-10.898	0.043
0.095	-10.898	0.024
0.0955	-10.898	0.008
0.096	-10.898	0.002
0.0965	-10.898	-0.009
0.097	-10.898	-0.014
0.0975	-10.898	-0.015
0.098	-10.898	-0.038
0.0985	-10.898	-0.047
0.099	-10.898	-0.049
0.0995	-10.898	-0.077
0.1	-10.898	-0.062
0.1005	-10.898	-0.053
0.101	-10.898	-0.053
0.1015	-10.898	-0.072
0.102	-10.898	-0.074
0.1025	-10.898	-0.072
0.103	-10.897	-0.050
0.1035	-10.897	-0.029
0.104	-10.897	-0.033
0.1045	-10.897	-0.041
0.105	-10.897	-0.045
0.1055	-10.897	-0.043
0.106	-10.897	-0.031
0.1065	-10.897	-0.016
0.107	-10.897	-0.013
0.1075	-10.897	0.010
0.108	-10.897	0.010
0.1085	-10.897	0.013
0.109	-10.897	0.009
0.1095	-10.897	0.024
0.11	-10.897	0.028
0.1105	-10.897	0.030
0.111	-10.897	0.028
0.1115	-10.897	0.018
0.112	-10.897	0.016
0.1125	-10.897	0.017
0.113	-10.897	0.006
0.1135	-10.897	-0.000
0.114	-10.897	-0.011
0.1145	-10.897	-0.026
0.115	-10.897	-0.040
0.1155	-10.897	-0.046
0.116	-10.897	-0.071
0.1165	-10.897	-0.082
0.117	-10.897	-0.070
0.1175	-10.897	-0.069
0.118	-10.897	-0.064
0.1185	-10.897	-0.084
0.119	-10.897	-0.077
0.1195	-10.897	-0.086
0.12	-10.897	-0.064
0.1205	-10.897	-0.064
0.121	-10.897	-0.074
0.1215	-10.897	-0.047
0.122	-10.897	-0.067
0.1225	-10.897	-0.035
0.123	-10.897	-0.021
0.1235	-10.897	-0.021
0.124	-10.897	-0.020
0.1245	-10.897	-0.002
0.125	-10.897	0.010
0.1255	-10.897	0.003
0.126	-10.897	0.003
0.1265	-10.897	0.015
0.127	-10.895	0.017
0.1275	-10.895	0.018
0.128	-10.895	0.024
0.1285	-10.895	0.014
0.129	-10.895	0.008
0.1295	-10.895	-0.004
0.13	-10.895	-0.004
0.1305	-10.895	-0.000
0.131	-10.895	-0.006
0.1315	-10.895	-0.018
0.132	-10.895	-0.016
0.1325	-10.895	-0.045
0.133	-10.895	-0.073
0.1335	-10.895	-0.074
0.134	-10.895	-0.070
0.1345	-10.895	-0.083
0.135	-10.895	-0.079
0.1355	-10.895	-0.080
0.136	-10.895	-0.068
0.1365	-10.895	-0.068
0.137	-10.895	-0.047
0.1375	-10.895	-0.052
0.138	-10.895	-0.059
0.1385	-10.895	-0.050
0.139	-10.895	-0.044
0.1395	-10.895	-0.010
0.14	-10.895	-0.001
0.1405	-10.895	0.023
0.141	-10.895	0.025
0.1415	-10.895	0.006
0.142	-10.895	0.011
0.1425	-10.895	-0.003
0.143	-10.895	0.015
0.1435	-10.894	0.021
0.144	-10.894	0.023
0.1445	-10.894	0.029
0.145	-10.894	0.018
0.1455	-10.894	0.020
0.146	-10.894	0.007
0.1465	-10.894	0.019
0.147	-10.894	0.010
0.1475	-10.894	-0.002
0.148	-10.894	-0.023
0.1485	-10.894	-0.038
0.149	-10.894	-0.049
0.1495	-10.894	-0.068
0.15	-10.894	-0.060
0.1505	-10.894	-0.063
0.151	-10.894	-0.059
0.1515	-10.894	-0.071
0.152	-10.894	-0.089
0.1525	-10.894	-0.078
0.153	-10.894	-0.069
0.1535	-10.894	-0.051
0.154	-10.894	-0.056
0.1545	-10.894	-0.074
0.155	-10.894	-0.070
0.1555	-10.894	-0.058
0.156	-10.894	-0.021
0.1565	-10.894	-0.000
0.157	-10.894	-0.004
0.1575	-10.892	-0.003
0.158	-10.892	-0.001
0.1585	-10.892	-0.014
0.159	-10.892	0.002
0.1595	-10.892	0.013
0.16	-10.892	0.026
0.1605	-10.892	0.022
0.161	-10.892	0.034
0.1615	-10.892	0.022
0.162	-10.892	0.024
0.1625	-10.892	0.022
0.163	-10.892	0.004
0.1635	-10.892	0.005
0.164	-10.892	0.001
0.1645	-10.892	-0.019
0.165	-10.892	-0.033
0.1655	-10.892	-0.054
0.166	-10.892	-0.060
0.1665	-10.892	-0.072
0.167	-10.892	-0.038
0.1675	-10.892	-0.061
0.168	-10.892	-0.065
0.1685	-10.892	-0.077
0.169	-10.891	-0.089
0.1695	-10.891	-0.070
0.17	-10.891	-0.059
0.1705	-10.891	-0.056
0.171	-10.891	-0.063
0.1715	-10.891	-0.067
0.172	-10.891	-0.053
0.1725	-10.891	-0.037
0.173	-10.891	-0.008
0.1735	-10.891	0.002
0.174	-10.891	0.012
0.1745	-10.891	0.020
0.175	-10.891	0.011
0.1755	-10.891	0.013
0.176	-10.891	0.018
0.1765	-10.891	0.035
0.177	-10.891	0.047
0.1775	-10.891	0.041
0.178	-10.891	0.036
0.1785	-10.891	0.015
0.179	-10.891	-0.004
0.1795	-10.889	-0.007
0.18	-10.889	-0.008
0.1805	-10.889	0.001
0.181	-10.889	-0.008
0.1815	-10.889	-0.032
0.182	-10.889	-0.039
0.1825	-10.889	-0.057
0.183	-10.889	-0.081
0.1835	-10.889	-0.085
0.184	-10.889	-0.065
0.1845	-10.889	-0.071
0.185	-10.889	-0.079
0.1855	-10.889	-0.077
0.186	-10.889	-0.063
0.1865	-10.889	-0.052
0.187	-10.889	-0.063
0.1875	-10.889	-0.062
0.188	-10.889	-0.079
0.1885	-10.889	-0.074
0.189	-10.889	-0.069
0.1895	-10.888	-0.049
0.19	-10.888	-0.029
0.1905	-10.888	-0.005
0.191	-10.888	0.017
0.1915	-10.888	-0.003
0.192	-10.888	0.009
0.1925	-10.888	0.021
0.193	-10.888	0.014
0.1935	-10.888	0.031
0.194	-10.888	0.031
0.1945	-10.888	0.031
0.195	-10.888	0.009
0.1955	-10.888	0.004
0.196	-10.888	0.016
0.1965	-10.888	0.023
0.197	-10.888	0.023
0.1975	-10.888	0.004
0.198	-10.886	-0.026
0.1985	-10.886	-0.041
0.199	-10.886	-0.066
0.1995	-10.886	-0.083
0.2	-10.886	-0.071
0.2005	-10.886	-0.051
0.201	-10.886	-0.051
0.2015	-10.886	-0.072
0.202	-10.886	-0.084
0.2025	-10.886	-0.070
0.203	-10.886	-0.068
0.2035	-10.886	-0.052
0.204	-10.886	-0.051
0.2045	-10.886	-0.058
0.205	-10.886	-0.066
0.2055	-10.886	-0.048
0.206	-10.886	-0.033
0.2065	-10.884	-0.030
0.207	-10.884	-0.010
0.2075	-10.884	0.004
0.208	-10.884	-0.001
0.2085	-10.884	0.006
0.209	-10.884	0.012
0.2095	-10.884	0.014
0.21	-10.884	0.018
0.2105	-10.884	0.027
0.211	-10.884	0.002
0.2115	-10.884	0.006
0.212	-10.884	-0.004
0.2125	-10.884	-0.002
0.213	-10.884	0.005
0.2135	-10.884	0.004
0.214	-10.884	0.006
0.2145	-10.883	-0.018
0.215	-10.883	-0.027
0.2155	-10.883	-0.048
0.216	-10.883	-0.064
0.2165	-10.883	-0.052
0.217	-10.883	-0.053
0.2175	-10.883	-0.061
0.218	-10.883	-0.073
0.2185	-10.883	-0.072
0.219	-10.883	-0.074
0.2195	-10.883	-0.076
0.22	-10.883	-0.059
0.2205	-10.883	-0.049
0.221	-10.883	-0.030
0.2215	-10.881	-0.036
0.222	-10.881	-0.049
0.2225	-10.881	-0.033
0.223	-10.881	-0.025
0.2235	-10.881	-0.005
0.224	-10.881	0.007
0.2245	-10.881	0.020
0.225	-10.881	0.008
0.2255	-10.881	0.008
0.226	-10.881	0.007
0.2265	-10.881	0.021
0.227	-10.881	0.024
0.2275	-10.881	0.021
0.228	-10.881	0.009
0.2285	-10.881	0.014
0.229	-10.880	0.008
0.2295	-10.880	0.005
0.23	-10.880	-0.013
0.2305	-10.880	-0.015
0.231	-10.880	-0.016
0.2315	-10.880	-0.035
0.232	-10.880	-0.032
0.2325	-10.880	-0.057
0.233	-10.880	-0.060
0.2335	-10.880	-0.053
0.234	-10.880	-0.052
0.2345	-10.880	-0.060
0.235	-10.880	-0.074
0.2355	-10.880	-0.074
0.236	-10.878	-0.082
0.2365	-10.878	-0.076
0.237	-10.878	-0.066
0.2375	-10.878	-0.057
0.238	-10.878	-0.049
0.2385	-10.878	-0.044
0.239	-10.878	-0.032
0.2395	-10.878	-0.007
0.24	-10.878	0.012
0.2405	-10.878	0.011
0.241	-10.878	0.019
0.2415	-10.878	-0.002
0.242	-10.878	-0.016
0.2425	-10.877	-0.016
0.243	-10.877	-0.004
0.2435	-10.877	0.008
0.244	-10.877	0.020
0.2445	-10.877	0.030
0.245	-10.877	0.019
0.2455	-10.877	0.007
0.246	-10.877	0.005
0.2465	-10.877	-0.001
0.247	-10.877	-0.024
0.2475	-10.877	-0.020
0.248	-10.877	-0.027
0.2485	-10.877	-0.019
0.249	-10.875	-0.025
0.2495	-10.875	-0.041
0.25	-10.875	-0.056
0.2505	-10.875	-0.061
0.251	-10.875	-0.060
0.2515	-10.875	-0.072
0.252	-10.875	-0.076
0.2525	-10.875	-0.064
0.253	-10.875	-0.067
0.2535	-10.875	-0.038
0.254	-10.875	-0.055
0.2545	-10.875	-0.068
0.255	-10.873	-0.061
0.2555	-10.873	-0.065
0.256	-10.873	-0.045
0.2565	-10.873	-0.021
0.257	-10.873	-0.001
0.2575	-10.873	0.021
0.258	-10.873	0.018
0.2585	-10.873	0.017
0.259	-10.873	0.014
0.2595	-10.873	0.015
0.26	-10.873	0.030
0.2605	-10.873	0.043
0.261	-10.872	0.040
0.2615	-10.872	0.026
0.262	-10.872	0.017
0.2625	-10.872	0.008
0.263	-10.872	0.019
0.2635	-10.872	0.001
0.264	-10.872	0.002
0.2645	-10.872	-0.006
0.265	-10.872	-0.023
0.2655	-10.872	-0.030
0.266	-10.872	-0.053
0.2665	-10.872	-0.067
0.267	-10.870	-0.069
0.2675	-10.870	-0.073
0.268	-10.870	-0.090
0.2685	-10.870	-0.089
0.269	-10.870	-0.077
0.2695	-10.870	-0.082
0.27	-10.870	-0.069
0.2705	-10.870	-0.055
0.271	-10.870	-0.056
0.2715	-10.870	-0.055
0.272	-10.870	-0.039
0.2725	-10.870	-0.011
0.273	-10.869	0.007
0.2735	-10.869	0.005
0.274	-10.869	0.015
0.2745	-10.869	0.022
0.275	-10.869	0.000
0.2755	-10.869	-0.001
0.276	-10.869	0.002
0.2765	-10.869	0.018
0.277	-10.869	0.023
0.2775	-10.869	0.015
0.278	-10.869	0.018
0.2785	-10.867	0.011
0.279	-10.867	0.006
0.2795	-10.867	-0.000
0.28	-10.867	0.015
0.2805	-10.867	-0.003
0.281	-10.867	-0.020
0.2815	-10.867	-0.036
0.282	-10.867	-0.041
0.2825	-10.867	-0.071
0.283	-10.867	-0.104
0.2835	-10.867	-0.089
0.284	-10.866	-0.085
0.2845	-10.866	-0.088
0.285	-10.866	-0.091
0.2855	-10.866	-0.081
0.286	-10.866	-0.069
0.2865	-10.866	-0.060
0.287	-10.866	-0.061
0.2875	-10.866	-0.050
0.288	-10.866	-0.043
0.2885	-10.866	-0.035
0.289	-10.866	-0.017
0.2895	-10.864	0.004
0.29	-10.864	0.002
0.2905	-10.864	-0.003
0.291	-10.864	0.007
0.2915	-10.864	-0.017
0.292	-10.864	-0.007
0.2925	-10.864	0.004
0.293	-10.864	0.018
0.2935	-10.864	0.023
0.294	-10.864	0.025
0.2945	-10.864	0.014
0.295	-10.863	-0.002
0.2955	-10.863	-0.004
0.296	-10.863	0.005
0.2965	-10.863	-0.009
0.297	-10.863	-0.011
0.2975	-10.863	-0.008
0.298	-10.863	-0.018
0.2985	-10.863	-0.027
0.299	-10.863	-0.038
0.2995	-10.863	-0.061
0.3	-10.863	-0.070
0.3005	-10.861	-0.049
0.301	-10.861	-0.058
0.3015	-10.861	-0.053
0.302	-10.861	-0.057
0.3025	-10.861	-0.061
0.303	-10.861	-0.058
0.3035	-10.861	-0.054
0.304	-10.861	-0.034
0.3045	-10.861	-0.054
0.305	-10.861	-0.052
0.3055	-10.861	-0.054
0.306	-10.859	-0.034
0.3065	-10.859	-0.009
0.307	-10.859	-0.014
0.3075	-10.859	0.013
0.308	-10.859	0.013
0.3085	-10.859	-0.004
0.309	-10.859	0.001
0.3095	-10.859	0.008
0.31	-10.859	0.017
0.3105	-10.859	0.016
0.311	-10.858	0.028
0.3115	-10.858	0.020
0.312	-10.858	0.016
0.3125	-10.858	0.024
0.313	-10.858	0.032
0.3135	-10.858	0.023
0.314	-10.858	-0.001
0.3145	-10.858	-0.028
0.315	-10.858	-0.039
0.3155	-10.858	-0.034
0.316	-10.858	-0.050
0.3165	-10.856	-0.057
0.317	-10.856	-0.060
0.3175	-10.856	-0.065
0.318	-10.856	-0.072
0.3185	-10.856	-0.086
0.319	-10.856	-0.095
0.3195	-10.856	-0.093
0.32	-10.856	-0.058
0.3205	-10.856	-0.043
0.321	-10.856	-0.038
0.3215	-10.855	-0.037
0.322	-10.855	-0.030
0.3225	-10.855	-0.022
0.323	-10.855	-0.014
0.3235	-10.855	0.000
0.324	-10.855	-0.005
0.3245	-10.855	0.013
0.325	-10.855	-0.004
0.3255	-10.855	0.008
0.326	-10.855	0.015
0.3265	-10.853	0.022
0.327	-10.853	0.031
0.3275	-10.853	0.028
0.328	-10.853	0.040
0.3285	-10.853	-0.002
0.329	-10.853	-0.001
0.3295	-10.853	0.006
0.33	-10.853	0.012
0.3305	-10.853	-0.002
0.331	-10.853	-0.022
0.3315	-10.852	-0.034
0.332	-10.852	-0.057
0.3325	-10.852	-0.064
0.333	-10.852	-0.088
0.3335	-10.852	-0.071
0.334	-10.852	-0.066
0.3345	-10.852	-0.077
0.335	-10.852	-0.081
0.3355	-10.852	-0.082
0.336	-10.852	-0.072
0.3365	-10.850	-0.057
0.337	-10.850	-0.044
0.3375	-10.850	-0.030
0.338	-10.850	-0.035
0.3385	-10.850	-0.046
0.339	-10.850	-0.034
0.3395	-10.850	-0.025
0.34	-10.850	-0.022
0.3405	-10.850	-0.009
0.341	-10.850	0.022
0.3415	-10.850	0.015
0.342	-10.848	0.008
0.3425	-10.848	0.001
0.343	-10.848	0.002
0.3435	-10.848	0.020
0.344	-10.848	0.033
0.3445	-10.848	0.029
0.345	-10.848	0.010
0.3455	-10.848	-0.002
0.346	-10.848	-0.003
0.3465	-10.848	-0.005
0.347	-10.847	-0.010
0.3475	-10.847	-0.022
0.348	-10.847	-0.043
0.3485	-10.847	-0.031
0.349	-10.847	-0.034
0.3495	-10.847	-0.046
0.35	-10.847	-0.056
0.3505	-10.847	-0.067
0.351	-10.847	-0.068
0.3515	-10.847	-0.078
0.352	-10.845	-0.071
0.3525	-10.845	-0.071
0.353	-10.845	-0.066
0.3535	-10.845	-0.057
0.354	-10.845	-0.067
0.3545	-10.845	-0.059
0.355	-10.845	-0.056
0.3555	-10.845	-0.047
0.356	-10.845	-0.027
0.3565	-10.845	-0.019
0.357	-10.844	0.003
0.3575	-10.844	0.018
0.358	-10.844	0.013
0.3585	-10.844	0.008
0.359	-10.844	0.021
0.3595	-10.844	0.023
0.36	-10.844	0.029
0.3605	-10.844	0.024
0.361	-10.844	0.012
0.3615	-10.844	0.007
0.362	-10.842	0.013
0.3625	-10.842	0.011
0.363	-10.842	0.014
0.3635	-10.842	0.004
0.364	-10.842	-0.015
0.3645	-10.842	-0.015
0.365	-10.842	-0.037
0.3655	-10.842	-0.047
0.366	-10.842	-0.070
0.3665	-10.842	-0.071
0.367	-10.841	-0.065
0.3675	-10.841	-0.068
0.368	-10.841	-0.071
0.3685	-10.841	-0.083
0.369	-10.841	-0.075
0.3695	-10.841	-0.078
0.37	-10.841	-0.047
0.3705	-10.841	-0.051
0.371	-10.841	-0.072
0.3715	-10.841	-0.073
0.372	-10.839	-0.063
0.3725	-10.839	-0.025
0.373	-10.839	-0.017
0.3735	-10.839	-0.008
0.374	-10.839	-0.003
0.3745	-10.839	0.010
0.375	-10.839	0.018
0.3755	-10.839	0.019
0.376	-10.839	0.033
0.3765	-10.839	0.047
0.377	-10.838	0.055
0.3775	-10.838	0.043
0.378	-10.838	0.012
0.3785	-10.838	-0.008
0.379	-10.838	-0.005
0.3795	-10.838	0.015
0.38	-10.838	0.008
0.3805	-10.838	-0.002
0.381	-10.838	-0.007
0.3815	-10.838	-0.021
0.382	-10.836	-0.020
0.3825	-10.836	-0.041
0.383	-10.836	-0.066
0.3835	-10.836	-0.069
0.384	-10.836	-0.068
0.3845	-10.836	-0.074
0.385	-10.836	-0.072
0.3855	-10.836	-0.096
0.386	-10.836	-0.092
0.3865	-10.836	-0.078
0.387	-10.834	-0.047
0.3875	-10.834	-0.049
0.388	-10.834	-0.037
0.3885	-10.834	-0.039
0.389	-10.834	-0.018
0.3895	-10.834	-0.007
0.39	-10.834	-0.008
0.3905	-10.834	0.002
0.391	-10.834	0.009
0.3915	-10.834	-0.006
0.392	-10.833	-0.011
0.3925	-10.833	-0.018
0.393	-10.833	0.000
0.3935	-10.833	0.001
0.394	-10.833	0.009
0.3945	-10.833	0.021
0.395	-10.833	0.003
0.3955	-10.833	-0.005
0.396	-10.833	-0.005
0.3965	-10.833	0.018
0.397	-10.833	0.017
0.3975	-10.831	0.003
0.398	-10.831	-0.022
0.3985	-10.831	-0.037
0.399	-10.831	-0.037
0.3995	-10.831	-0.058
0.4	-10.831	-0.056
0.4005	-10.831	-0.063
0.401	-10.831	-0.070
0.4015	-10.831	-0.092
0.402	-10.831	-0.087
0.4025	-10.830	-0.076
0.403	-10.830	-0.076
0.4035	-10.830	-0.057
0.404	-10.830	-0.049
0.4045	-10.830	-0.043
0.405	-10.830	-0.029
0.4055	-10.830	-0.016
0.406	-10.830	-0.017
0.4065	-10.830	-0.014
0.407	-10.830	-0.001
0.4075	-10.828	0.014
0.408	-10.828	0.001
0.4085	-10.828	0.001
0.409	-10.828	0.010
0.4095	-10.828	0.017
0.41	-10.828	0.037
0.4105	-10.828	0.035
0.411	-10.828	0.032
0.4115	-10.828	0.019
0.412	-10.828	0.011
0.4125	-10.828	0.013
0.413	-10.827	0.010
0.4135	-10.827	0.009
0.414	-10.827	-0.007
0.4145	-10.827	-0.012
0.415	-10.827	-0.036
0.4155	-10.827	-0.049
0.416	-10.827	-0.061
0.4165	-10.827	-0.070
0.417	-10.827	-0.053
0.4175	-10.827	-0.064
0.418	-10.825	-0.066
0.4185	-10.825	-0.068
0.419	-10.825	-0.070
0.4195	-10.825	-0.066
0.42	-10.825	-0.075
0.4205	-10.825	-0.047
0.421	-10.825	-0.064
0.4215	-10.825	-0.063
0.422	-10.825	-0.056
0.4225	-10.825	-0.037
0.423	-10.825	-0.016
0.4235	-10.823	-0.013
0.424	-10.823	-0.000
0.4245	-10.823	0.020
0.425	-10.823	0.003
0.4255	-10.823	0.017
0.426	-10.823	0.020
0.4265	-10.823	0.025
0.427	-10.823	0.014
0.4275	-10.823	0.016
0.428	-10.823	0.012
0.4285	-10.823	-0.000
0.429	-10.822	-0.001
0.4295	-10.822	0.009
0.43	-10.822	0.012
0.4305	-10.822	0.018
0.431	-10.822	0.002
0.4315	-10.822	-0.007
0.432	-10.822	-0.019
0.4325	-10.822	-0.044
0.433	-10.822	-0.066
0.4335	-10.822	-0.059
0.434	-10.822	-0.074
0.4345	-10.820	-0.094
0.435	-10.820	-0.104
0.4355	-10.820	-0.110
0.436	-10.820	-0.089
0.4365	-10.820	-0.051
0.437	-10.820	-0.049
0.4375	-10.820	-0.044
0.438	-10.820	-0.053
0.4385	-10.820	-0.053
0.439	-10.820	-0.042
0.4395	-10.820	-0.035
0.44	-10.819	-0.028
0.4405	-10.819	-0.029
0.441	-10.819	0.014
0.4415	-10.819	0.008
0.442	-10.819	0.005
0.4425	-10.819	0.020
0.443	-10.819	0.025
0.4435	-10.819	0.018
0.444	-10.819	0.019
0.4445	-10.819	0.036
0.445	-10.819	0.000
0.4455	-10.817	0.007
0.446	-10.817	0.015
0.4465	-10.817	0.022
0.447	-10.817	0.007
0.4475	-10.817	-0.029
0.448	-10.817	-0.035
0.4485	-10.817	-0.050
0.449	-10.817	-0.063
0.4495	-10.817	-0.077
0.45	-10.817	-0.082
0.4505	-10.817	-0.074
0.451	-10.816	-0.071
0.4515	-10.816	-0.076
0.452	-10.816	-0.070
0.4525	-10.816	-0.066
0.453	-10.816	-0.051
0.4535	-10.816	-0.020
0.454	-10.816	-0.024
0.4545	-10.816	-0.049
0.455	-10.816	-0.036
0.4555	-10.816	-0.035
0.456	-10.816	-0.044
0.4565	-10.816	-0.024
0.457	-10.814	-0.018
0.4575	-10.814	0.010
0.458	-10.814	0.003
0.4585	-10.814	-0.007
0.459	-10.814	0.006
0.4595	-10.814	0.017
0.46	-10.814	0.034
0.4605	-10.814	0.057
0.461	-10.814	0.046
0.4615	-10.814	0.038
0.462	-10.814	0.015
0.4625	-10.813	0.018
0.463	-10.813	0.014
0.4635	-10.813	0.007
0.464	-10.813	0.002
0.4645	-10.813	-0.012
0.465	-10.813	-0.027
0.4655	-10.813	-0.029
0.466	-10.813	-0.064
0.4665	-10.813	-0.074
0.467	-10.813	-0.074
0.4675	-10.813	-0.079
0.468	-10.813	-0.100
0.4685	-10.811	-0.095
0.469	-10.811	-0.083
0.4695	-10.811	-0.067
0.47	-10.811	-0.050
0.4705	-10.811	-0.040
0.471	-10.811	-0.051
0.4715	-10.811	-0.065
0.472	-10.811	-0.045
0.4725	-10.811	-0.038
0.473	-10.811	-0.036
0.4735	-10.811	-0.022
0.474	-10.811	-0.007
0.4745	-10.811	0.013
0.475	-10.809	-0.003
0.4755	-10.809	-0.007
0.476	-10.809	0.004
0.4765	-10.809	0.026
0.477	-10.809	0.030
0.4775	-10.809	0.021
0.478	-10.809	0.015
0.4785	-10.809	-0.004
0.479	-10.809	-0.010
0.4795	-10.809	0.015
0.48	-10.809	0.016
0.4805	-10.809	0.007
0.481	-10.808	-0.010
0.4815	-10.808	-0.023
0.482	-10.808	-0.024
0.4825	-10.808	-0.055
0.483	-10.808	-0.068
0.4835	-10.808	-0.057
0.484	-10.808	-0.052
0.4845	-10.808	-0.058
0.485	-10.808	-0.078
0.4855	-10.808	-0.081
0.486	-10.808	-0.077
0.4865	-10.808	-0.068
0.487	-10.808	-0.060
0.4875	-10.806	-0.059
0.488	-10.806	-0.046
0.4885	-10.806	-0.038
0.489	-10.806	-0.012
0.4895	-10.806	-0.007
0.49	-10.806	-0.007
0.4905	-10.806	-0.010
0.491	-10.806	0.006
0.4915	-10.806	-0.018
0.492	-10.806	-0.012
0.4925	-10.806	0.001
0.493	-10.806	0.003
0.4935	-10.806	0.025
0.494	-10.805	0.036
0.4945	-10.805	0.040
0.495	-10.805	0.038
0.4955	-10.805	0.011
0.496	-10.805	0.009
0.4965	-10.805	0.019
0.497	-10.805	0.005
0.4975	-10.805	0.002
0.498	-10.805	-0.016
0.4985	-10.805	-0.027
0.499	-10.805	-0.030
0.4995	-10.805	-0.053
0.5	-10.805	-0.064
0.5005	-10.805	-0.068
0.501	-10.803	-0.060
0.5015	-10.803	-0.073
0.502	-10.803	-0.097
0.5025	-10.803	-0.088
0.503	-10.803	-0.084
0.5035	-10.803	-0.052
0.504	-10.803	-0.055
0.5045	-10.803	-0.050
0.505	-10.803	-0.045
0.5055	-10.803	-0.050
0.506	-10.803	-0.028
0.5065	-10.803	-0.017
0.507	-10.803	-0.004
0.5075	-10.802	0.012
0.508	-10.802	0.008
0.5085	-10.802	-0.001
0.509	-10.802	-0.005
0.5095	-10.802	0.014
0.51	-10.802	0.024
0.5105	-10.802	0.028
0.511	-10.802	0.024
0.5115	-10.802	0.006
0.512	-10.802	0.003
0.5125	-10.802	0.006
0.513	-10.802	0.005
0.5135	-10.802	-0.006
0.514	-10.802	-0.005
0.5145	-10.802	-0.017
0.515	-10.800	-0.030
0.5155	-10.800	-0.043
0.516	-10.800	-0.071
0.5165	-10.800	-0.072
0.517	-10.800	-0.072
0.5175	-10.800	-0.077
0.518	-10.800	-0.090
0.5185	-10.800	-0.092
0.519	-10.800	-0.080
0.5195	-10.800	-0.085
0.52	-10.800	-0.064
0.5205	-10.800	-0.041
0.521	-10.800	-0.038
0.5215	-10.800	-0.045
0.522	-10.800	-0.050
0.5225	-10.798	-0.029
0.523	-10.798	-0.009
0.5235	-10.798	0.001
0.524	-10.798	0.002
0.5245	-10.798	0.008
0.525	-10.798	-0.007
0.5255	-10.798	0.005
0.526	-10.798	0.012
0.5265	-10.798	0.034
0.527	-10.798	0.033
0.5275	-10.798	0.037
0.528	-10.798	0.028
0.5285	-10.798	0.012
0.529	-10.798	0.015
0.5295	-10.798	0.011
0.53	-10.797	0.008
0.5305	-10.797	-0.009
0.531	-10.797	-0.027
0.5315	-10.797	-0.036
0.532	-10.797	-0.031
0.5325	-10.797	-0.057
0.533	-10.797	-0.083
0.5335	-10.797	-0.058
0.534	-10.797	-0.062
0.5345	-10.797	-0.062
0.535	-10.797	-0.069
0.5355	-10.797	-0.069
0.536	-10.797	-0.059
0.5365	-10.797	-0.065
0.537	-10.797	-0.052
0.5375	-10.797	-0.052
0.538	-10.797	-0.050
0.5385	-10.795	-0.053
0.539	-10.795	-0.043
0.5395	-10.795	-0.041
0.54	-10.795	-0.026
0.5405	-10.795	-0.020
0.541	-10.795	0.005
0.5415	-10.795	0.000
0.542	-10.795	0.007
0.5425	-10.795	0.011
0.543	-10.795	0.019
0.5435	-10.795	0.029
0.544	-10.795	0.017
0.5445	-10.795	0.013
0.545	-10.795	0.002
0.5455	-10.795	-0.011
0.546	-10.795	-0.001
0.5465	-10.795	0.014
0.547	-10.794	0.008
0.5475	-10.794	-0.002
0.548	-10.794	-0.020
0.5485	-10.794	-0.041
0.549	-10.794	-0.056
0.5495	-10.794	-0.063
0.55	-10.794	-0.076
0.5505	-10.794	-0.063
0.551	-10.794	-0.074
0.5515	-10.794	-0.081
0.552	-10.794	-0.092
0.5525	-10.794	-0.086
0.553	-10.794	-0.079
0.5535	-10.794	-0.071
0.554	-10.794	-0.044
0.5545	-10.794	-0.055
0.555	-10.794	-0.050
0.5555	-10.794	-0.051
0.556	-10.792	-0.027
0.5565	-10.792	-0.019
0.557	-10.792	-0.009
0.5575	-10.792	0.023
0.558	-10.792	0.018
0.5585	-10.792	0.003
0.559	-10.792	-0.001
0.5595	-10.792	0.000
0.56	-10.792	0.016
0.5605	-10.792	0.020
0.561	-10.792	0.029
0.5615	-10.792	0.022
0.562	-10.792	0.007
0.5625	-10.792	0.006
0.563	-10.792	-0.006
0.5635	-10.792	-0.003
0.564	-10.792	-0.002
0.5645	-10.792	-0.016
0.565	-10.792	-0.036
0.5655	-10.791	-0.052
0.566	-10.791	-0.074
0.5665	-10.791	-0.073
0.567	-10.791	-0.056
0.5675	-10.791	-0.054
0.568	-10.791	-0.067
0.5685	-10.791	-0.083
0.569	-10.791	-0.077
0.5695	-10.791	-0.070
0.57	-10.791	-0.044
0.5705	-10.791	-0.044
0.571	-10.791	-0.055
0.5715	-10.791	-0.063
0.572	-10.791	-0.054
0.5725	-10.791	-0.028
0.573	-10.791	-0.021
0.5735	-10.791	-0.010
0.574	-10.791	-0.003
0.5745	-10.791	0.031
0.575	-10.791	0.012
0.5755	-10.789	0.017
0.576	-10.789	0.011
0.5765	-10.789	0.004
0.577	-10.789	0.020
0.5775	-10.789	0.010
0.578	-10.789	0.005
0.5785	-10.789	-0.025
0.579	-10.789	-0.009
0.5795	-10.789	0.008
0.58	-10.789	0.001
0.5805	-10.789	0.011
0.581	-10.789	-0.015
0.5815	-10.789	-0.040
0.582	-10.789	-0.055
0.5825	-10.789	-0.072
0.583	-10.789	-0.076
0.5835	-10.789	-0.051
0.584	-10.789	-0.034
0.5845	-10.789	-0.047
0.585	-10.789	-0.052
0.5855	-10.789	-0.054
0.586	-10.789	-0.053
0.5865	-10.789	-0.039
0.587	-10.788	-0.041
0.5875	-10.788	-0.034
0.588	-10.788	-0.050
0.5885	-10.788	-0.063
0.589	-10.788	-0.058
0.5895	-10.788	-0.045
0.59	-10.788	-0.028
0.5905	-10.788	-0.013
0.591	-10.788	0.015
0.5915	-10.788	0.000
0.592	-10.788	-0.010
0.5925	-10.788	-0.003
0.593	-10.788	0.002
0.5935	-10.788	0.005
0.594	-10.788	0.009
0.5945	-10.788	0.018
0.595	-10.788	0.004
0.5955	-10.788	-0.014
0.596	-10.788	0.002
0.5965	-10.788	0.004
0.597	-10.788	0.005
0.5975	-10.788	0.001
0.598	-10.788	-0.032
0.5985	-10.788	-0.039
0.599	-10.786	-0.048
0.5995	-10.786	-0.064
0.6	-10.786	-0.061
0.6005	-10.786	-0.054
0.601	-10.786	-0.042
0.6015	-10.786	-0.077
0.602	-10.786	-0.085
0.6025	-10.786	-0.087
0.603	-10.786	-0.079
0.6035	-10.786	-0.065
0.604	-10.786	-0.064
0.6045	-10.786	-0.069
0.605	-10.786	-0.066
0.6055	-10.786	-0.052
0.606	-10.786	-0.021
0.6065	-10.786	0.008
0.607	-10.786	0.018
0.6075	-10.786	0.038
0.608	-10.786	0.034
0.6085	-10.786	0.014
0.609	-10.786	0.005
0.6095	-10.786	0.012
0.61	-10.786	0.027
0.6105	-10.786	0.026
0.611	-10.786	0.015
0.6115	-10.786	0.011
0.612	-10.786	0.005
0.6125	-10.784	-0.011
0.613	-10.784	-0.009
0.6135	-10.784	-0.014
0.614	-10.784	-0.009
0.6145	-10.784	-0.022
0.615	-10.784	-0.033
0.6155	-10.784	-0.047
0.616	-10.784	-0.056
0.6165	-10.784	-0.063
0.617	-10.784	-0.059
0.6175	-10.784	-0.064
0.618	-10.784	-0.064
0.6185	-10.784	-0.081
0.619	-10.784	-0.081
0.6195	-10.784	-0.084
0.62	-10.784	-0.063
0.6205	-10.784	-0.059
0.621	-10.784	-0.048
0.6215	-10.784	-0.051
0.622	-10.784	-0.064
0.6225	-10.784	-0.032
0.623	-10.784	-0.008
0.6235	-10.784	0.005
0.624	-10.784	0.013
0.6245	-10.784	0.023
0.625	-10.784	0.003
0.6255	-10.784	-0.007
0.626	-10.784	0.007
0.6265	-10.784	0.012
0.627	-10.784	0.026
0.6275	-10.784	0.023
0.628	-10.783	0.021
0.6285	-10.783	0.008
0.629	-10.783	-0.012
0.6295	-10.783	0.000
0.63	-10.783	0.005
0.6305	-10.783	-0.003
0.631	-10.783	-0.020
0.6315	-10.783	-0.035
0.632	-10.783	-0.042
0.6325	-10.783	-0.062
0.633	-10.783	-0.067
0.6335	-10.783	-0.073
0.634	-10.783	-0.070
0.6345	-10.783	-0.082
0.635	-10.783	-0.087
0.6355	-10.783	-0.098
0.636	-10.783	-0.083
0.6365	-10.783	-0.065
0.637	-10.783	-0.054
0.6375	-10.783	-0.055
0.638	-10.783	-0.057
0.6385	-10.783	-0.045
0.639	-10.783	-0.039
0.6395	-10.783	-0.025
0.64	-10.783	-0.012
0.6405	-10.783	-0.001
0.641	-10.783	0.015
0.6415	-10.783	0.001
0.642	-10.783	0.012
0.6425	-10.783	0.014
0.643	-10.783	0.017
0.6435	-10.783	0.019
0.644	-10.783	0.021
0.6445	-10.783	0.036
0.645	-10.783	0.029
0.6455	-10.781	0.022
0.646	-10.781	0.012
0.6465	-10.781	0.021
0.647	-10.781	0.006
0.6475	-10.781	-0.013
0.648	-10.781	-0.034
0.6485	-10.781	-0.051
0.649	-10.781	-0.054
0.6495	-10.781	-0.089
0.65	-10.781	-0.068
0.6505	-10.781	-0.061
0.651	-10.781	-0.076
0.6515	-10.781	-0.084
0.652	-10.781	-0.085
0.6525	-10.781	-0.077
0.653	-10.781	-0.071
0.6535	-10.781	-0.054
0.654	-10.781	-0.061
0.6545	-10.781	-0.058
0.655	-10.781	-0.054
0.6555	-10.781	-0.035
0.656	-10.781	-0.014
0.6565	-10.781	-0.009
0.657	-10.781	-0.003
0.6575	-10.781	0.008
0.658	-10.781	0.007
0.6585	-10.781	-0.002
0.659	-10.781	-0.007
0.6595	-10.781	0.016
0.66	-10.781	0.034
0.6605	-10.781	0.029
0.661	-10.781	0.036
0.6615	-10.781	0.005
0.662	-10.781	-0.003
0.6625	-10.781	0.005
0.663	-10.781	0.004
0.6635	-10.781	0.007
0.664	-10.781	-0.019
0.6645	-10.781	-0.021
0.665	-10.781	-0.039
0.6655	-10.781	-0.059
0.666	-10.781	-0.071
0.6665	-10.781	-0.085
0.667	-10.781	-0.057
0.6675	-10.780	-0.060
0.668	-10.780	-0.069
0.6685	-10.780	-0.074
0.669	-10.780	-0.077
0.6695	-10.780	-0.074
0.67	-10.780	-0.083
0.6705	-10.780	-0.063
0.671	-10.780	-0.060
0.6715	-10.780	-0.074
0.672	-10.780	-0.067
0.6725	-10.780	-0.044
0.673	-10.780	-0.037
0.6735	-10.780	-0.033
0.674	-10.780	-0.004
0.6745	-10.780	-0.000
0.675	-10.780	-0.008
0.6755	-10.780	-0.003
0.676	-10.780	0.001
0.6765	-10.780	0.021
0.677	-10.780	0.026
0.6775	-10.780	0.029
0.678	-10.780	0.028
0.6785	-10.780	0.003
0.679	-10.780	0.009
0.6795	-10.780	0.016
0.68	-10.780	0.016
0.6805	-10.780	0.009
0.681	-10.780	-0.006
0.6815	-10.780	-0.030
0.682	-10.780	-0.055
0.6825	-10.780	-0.073
0.683	-10.780	-0.078
0.6835	-10.780	-0.070
0.684	-10.780	-0.074
0.6845	-10.780	-0.079
0.685	-10.780	-0.075
0.6855	-10.780	-0.077
0.686	-10.780	-0.080
0.6865	-10.780	-0.066
0.687	-10.780	-0.061
0.6875	-10.780	-0.055
0.688	-10.780	-0.065
0.6885	-10.780	-0.057
0.689	-10.780	-0.040
0.6895	-10.780	-0.024
0.69	-10.780	-0.007
0.6905	-10.780	-0.020
0.691	-10.780	0.013
0.6915	-10.780	-0.001
0.692	-10.780	0.005
0.6925	-10.780	-0.002
0.693	-10.780	0.009
0.6935	-10.780	0.024
0.694	-10.780	0.020
0.6945	-10.780	0.019
0.695	-10.780	0.010
0.6955	-10.780	0.004
0.696	-10.778	0.007
0.6965	-10.778	0.006
0.697	-10.778	0.008
0.6975	-10.778	-0.014
0.698	-10.778	-0.025
0.6985	-10.778	-0.035
0.699	-10.778	-0.053
0.6995	-10.778	-0.072
0.7	-10.778	-0.067
0.7005	-10.778	-0.058
0.701	-10.778	-0.068
0.7015	-10.778	-0.076
0.702	-10.778	-0.077
0.7025	-10.778	-0.085
0.703	-10.778	-0.076
0.7035	-10.778	-0.055
0.704	-10.778	-0.054
0.7045	-10.778	-0.052
0.705	-10.778	-0.055
0.7055	-10.778	-0.042
0.706	-10.778	-0.031
0.7065	-10.778	-0.016
0.707	-10.778	-0.006
0.7075	-10.778	0.012
0.708	-10.778	0.017
0.7085	-10.778	0.004
0.709	-10.778	0.000
0.7095	-10.778	0.003
0.71	-10.778	0.011
0.7105	-10.778	0.013
0.711	-10.778	0.015
0.7115	-10.778	0.015
0.712	-10.778	0.015
0.7125	-10.778	0.031
0.713	-10.778	0.025
0.7135	-10.778	0.009
0.714	-10.778	0.005
0.7145	-10.778	-0.029
0.715	-10.778	-0.031
0.7155	-10.778	-0.046
0.716	-10.778	-0.072
0.7165	-10.778	-0.078
0.717	-10.778	-0.070
0.7175	-10.778	-0.077
0.718	-10.778	-0.094
0.7185	-10.778	-0.092
0.719	-10.778	-0.086
0.7195	-10.778	-0.072
0.72	-10.778	-0.046
0.7205	-10.778	-0.059
0.721	-10.778	-0.058
0.7215	-10.778	-0.055
0.722	-10.778	-0.043
0.7225	-10.778	-0.028
0.723	-10.778	-0.007
0.7235	-10.778	0.003
0.724	-10.778	-0.000
0.7245	-10.778	-0.003
0.725	-10.778	-0.020
0.7255	-10.778	-0.012
0.726	-10.778	0.014
0.7265	-10.778	0.035
0.727	-10.778	0.040
0.7275	-10.778	0.043
0.728	-10.778	0.033
0.7285	-10.778	0.008
0.729	-10.778	-0.003
0.7295	-10.778	0.002
0.73	-10.778	-0.016
0.7305	-10.778	-0.018
0.731	-10.778	-0.023
0.7315	-10.778	-0.050
0.732	-10.778	-0.050
0.7325	-10.778	-0.061
0.733	-10.778	-0.071
0.7335	-10.778	-0.073
0.734	-10.778	-0.071
0.7345	-10.778	-0.071
0.735	-10.778	-0.090
0.7355	-10.778	-0.075
0.736	-10.778	-0.081
0.7365	-10.778	-0.064
0.737	-10.778	-0.047
0.7375	-10.778	-0.048
0.738	-10.778	-0.046
0.7385	-10.778	-0.062
0.739	-10.778	-0.033
0.7395	-10.778	-0.035
0.74	-10.778	-0.026
0.7405	-10.778	-0.012
0.741	-10.778	0.011
0.7415	-10.778	0.004
0.742	-10.778	0.010
0.7425	-10.778	0.016
0.743	-10.778	0.013
0.7435	-10.778	0.028
0.744	-10.778	0.034
0.7445	-10.778	0.040
0.745	-10.777	0.025
0.7455	-10.777	0.022
0.746	-10.777	0.017
0.7465	-10.777	-0.009
0.747	-10.777	-0.016
0.7475	-10.777	-0.012
0.748	-10.777	-0.018
0.7485	-10.777	-0.035
0.749	-10.777	-0.054
0.7495	-10.777	-0.068
0.75	-10.777	-0.077
0.7505	-10.777	-0.068
0.751	-10.777	-0.070
0.7515	-10.777	-0.077
0.752	-10.777	-0.091
0.7525	-10.777	-0.082
0.753	-10.777	-0.079
0.7535	-10.777	-0.072
0.754	-10.777	-0.062
0.7545	-10.777	-0.058
0.755	-10.777	-0.048
0.7555	-10.777	-0.052
0.756	-10.777	-0.024
0.7565	-10.777	-0.022
0.757	-10.777	0.006
0.7575	-10.777	0.018
0.758	-10.777	0.012
0.7585	-10.777	0.016
0.759	-10.777	-0.007
0.7595	-10.777	0.006
0.76	-10.777	0.015
0.7605	-10.777	0.032
0.761	-10.777	0.042
0.7615	-10.777	0.039
0.762	-10.777	0.021
0.7625	-10.777	-0.004
0.763	-10.777	0.004
0.7635	-10.777	0.009
0.764	-10.777	0.008
0.7645	-10.777	-0.003
0.765	-10.777	-0.047
0.7655	-10.777	-0.070
0.766	-10.777	-0.094
0.7665	-10.777	-0.090
0.767	-10.777	-0.075
0.7675	-10.777	-0.077
0.768	-10.777	-0.092
0.7685	-10.777	-0.106
0.769	-10.777	-0.091
0.7695	-10.777	-0.078
0.77	-10.777	-0.059
0.7705	-10.777	-0.051
0.771	-10.777	-0.053
0.7715	-10.777	-0.058
0.772	-10.777	-0.037
0.7725	-10.777	-0.023
0.773	-10.777	-0.008
0.7735	-10.777	-0.004
0.774	-10.777	0.010
0.7745	-10.777	0.014
0.775	-10.777	0.011
0.7755	-10.777	0.002
0.776	-10.777	-0.001
0.7765	-10.777	0.028
0.777	-10.777	0.023
0.7775	-10.777	0.028
0.778	-10.777	0.015
0.7785	-10.777	0.007
0.779	-10.777	-0.003
0.7795	-10.777	0.000
0.78	-10.777	0.008
0.7805	-10.777	0.014
0.781	-10.777	0.001
0.7815	-10.777	-0.032
0.782	-10.777	-0.043
0.7825	-10.777	-0.066
0.783	-10.777	-0.080
0.7835	-10.777	-0.069
0.784	-10.777	-0.073
0.7845	-10.777	-0.068
0.785	-10.777	-0.069
0.7855	-10.777	-0.073
0.786	-10.777	-0.071
0.7865	-10.777	-0.067
0.787	-10.777	-0.061
0.7875	-10.777	-0.055
0.788	-10.777	-0.057
0.7885	-10.777	-0.048
0.789	-10.777	-0.040
0.7895	-10.777	-0.010
0.79	-10.777	0.002
0.7905	-10.777	-0.003
0.791	-10.777	0.015
0.7915	-10.777	0.000
0.792	-10.777	0.003
0.7925	-10.777	0.004
0.793	-10.777	0.014
0.7935	-10.777	0.018
0.794	-10.777	0.020
0.7945	-10.777	0.035
0.795	-10.777	0.020
0.7955	-10.777	0.007
0.796	-10.777	0.015
0.7965	-10.777	0.001
0.797	-10.777	-0.002
0.7975	-10.777	-0.016
0.798	-10.777	-0.022
0.7985	-10.777	-0.031
0.799	-10.777	-0.037
0.7995	-10.777	-0.056
0.8	-10.777	-0.063
0.8005	-10.777	-0.052
0.801	-10.777	-0.067
0.8015	-10.777	-0.080
0.802	-10.777	-0.081
0.8025	-10.777	-0.079
0.803	-10.777	-0.065
0.8035	-10.777	-0.065
0.804	-10.777	-0.048
0.8045	-10.777	-0.051
0.805	-10.777	-0.041
0.8055	-10.777	-0.035
0.806	-10.777	-0.028
0.8065	-10.777	-0.017
0.807	-10.777	-0.016
0.8075	-10.777	0.002
0.808	-10.777	-0.007
0.8085	-10.777	-0.006
0.809	-10.777	0.003
0.8095	-10.777	0.020
0.81	-10.777	0.048
0.8105	-10.777	0.042
0.811	-10.777	0.037
0.8115	-10.777	0.014
0.812	-10.777	0.003
0.8125	-10.777	0.009
0.813	-10.777	0.006
0.8135	-10.777	0.001
0.814	-10.777	-0.008
0.8145	-10.777	-0.020
0.815	-10.777	-0.034
0.8155	-10.777	-0.049
0.816	-10.777	-0.057
0.8165	-10.777	-0.059
0.817	-10.777	-0.070
0.8175	-10.777	-0.062
0.818	-10.777	-0.075
0.8185	-10.777	-0.082
0.819	-10.777	-0.087
0.8195	-10.777	-0.087
0.82	-10.777	-0.068
0.8205	-10.777	-0.075
0.821	-10.777	-0.057
0.8215	-10.777	-0.054
0.822	-10.777	-0.039
0.8225	-10.777	-0.038
0.823	-10.777	-0.026
0.8235	-10.777	-0.005
0.824	-10.777	-0.008
0.8245	-10.777	0.008
0.825	-10.777	0.016
0.8255	-10.777	0.013
0.826	-10.777	0.029
0.8265	-10.777	0.034
0.827	-10.777	0.034
0.8275	-10.777	0.028
0.828	-10.777	0.024
0.8285	-10.777	0.008
0.829	-10.777	0.010
0.8295	-10.777	0.003
0.83	-10.777	0.001
0.8305	-10.777	0.006
0.831	-10.777	-0.003
0.8315	-10.777	-0.029
0.832	-10.777	-0.031
0.8325	-10.777	-0.046
0.833	-10.777	-0.042
0.8335	-10.777	-0.051
0.834	-10.777	-0.063
0.8345	-10.777	-0.069
0.835	-10.777	-0.089
0.8355	-10.777	-0.100
0.836	-10.777	-0.102
0.8365	-10.777	-0.075
0.837	-10.777	-0.065
0.8375	-10.777	-0.052
0.838	-10.777	-0.048
0.8385	-10.777	-0.040
0.839	-10.777	-0.036
0.8395	-10.777	-0.028
0.84	-10.777	-0.010
0.8405	-10.777	-0.005
0.841	-10.777	0.004
0.8415	-10.777	0.011
0.842	-10.777	0.007
0.8425	-10.777	0.016
0.843	-10.777	0.017
0.8435	-10.777	0.025
0.844	-10.777	0.022
0.8445	-10.777	0.014
0.845	-10.777	0.011
0.8455	-10.777	0.015
0.846	-10.777	0.020
0.8465	-10.777	0.013
0.847	-10.777	-0.001
0.8475	-10.777	-0.014
0.848	-10.777	-0.031
0.8485	-10.777	-0.035
0.849	-10.777	-0.053
0.8495	-10.777	-0.056
0.85	-10.777	-0.050
0.8505	-10.777	-0.054
0.851	-10.777	-0.067
0.8515	-10.777	-0.081
0.852	-10.777	-0.081
0.8525	-10.777	-0.077
0.853	-10.777	-0.066
0.8535	-10.777	-0.044
0.854	-10.777	-0.041
0.8545	-10.777	-0.045
0.855	-10.777	-0.051
0.8555	-10.777	-0.039
0.856	-10.777	-0.020
0.8565	-10.777	-0.019
0.857	-10.777	-0.005
0.8575	-10.777	0.009
0.858	-10.777	0.015
0.8585	-10.777	0.002
0.859	-10.777	-0.005
0.8595	-10.777	0.001
0.86	-10.777	0.013
0.8605	-10.777	0.015
0.861	-10.777	0.015
0.8615	-10.777	-0.005
0.862	-10.777	-0.003
0.8625	-10.777	0.005
0.863	-10.777	-0.002
0.8635	-10.777	0.000
0.864	-10.777	-0.000
0.8645	-10.777	-0.001
0.865	-10.777	-0.035
0.8655	-10.777	-0.039
0.866	-10.777	-0.054
0.8665	-10.777	-0.061
0.867	-10.777	-0.075
0.8675	-10.777	-0.082
0.868	-10.777	-0.089
0.8685	-10.777	-0.084
0.869	-10.777	-0.080
0.8695	-10.777	-0.083
0.87	-10.777	-0.059
0.8705	-10.777	-0.055
0.871	-10.777	-0.050
0.8715	-10.777	-0.050
0.872	-10.777	-0.062
0.8725	-10.777	-0.039
0.873	-10.778	-0.028
0.8735	-10.778	-0.010
0.874	-10.778	0.001
0.8745	-10.778	0.014
0.875	-10.778	0.008
0.8755	-10.778	0.009
0.876	-10.778	0.024
0.8765	-10.778	0.020
0.877	-10.778	0.014
0.8775	-10.778	0.019
0.878	-10.778	0.021
0.8785	-10.778	0.003
0.879	-10.778	0.004
0.8795	-10.778	0.008
0.88	-10.778	0.011
0.8805	-10.778	0.002
0.881	-10.778	-0.016
0.8815	-10.778	-0.030
0.882	-10.778	-0.034
0.8825	-10.778	-0.059
0.883	-10.778	-0.059
0.8835	-10.778	-0.065
0.884	-10.778	-0.052
0.8845	-10.778	-0.056
0.885	-10.778	-0.073
0.8855	-10.778	-0.085
0.886	-10.778	-0.080
0.8865	-10.778	-0.060
0.887	-10.778	-0.055
0.8875	-10.778	-0.040
0.888	-10.778	-0.040
0.8885	-10.778	-0.032
0.889	-10.778	-0.059
0.8895	-10.778	-0.037
0.89	-10.778	-0.018
0.8905	-10.778	0.001
0.891	-10.778	0.006
0.8915	-10.778	0.005
0.892	-10.778	0.020
0.8925	-10.778	0.004
0.893	-10.778	0.029
0.8935	-10.778	0.030
0.894	-10.778	0.036
0.8945	-10.778	0.027
0.895	-10.778	0.004
0.8955	-10.778	-0.003
0.896	-10.778	-0.007
0.8965	-10.778	0.010
0.897	-10.778	0.008
0.8975	-10.778	-0.012
0.898	-10.778	-0.017
0.8985	-10.778	-0.022
0.899	-10.778	-0.044
0.8995	-10.778	-0.064
0.9	-10.778	-0.058
0.9005	-10.778	-0.056
0.901	-10.778	-0.059
0.9015	-10.778	-0.060
0.902	-10.778	-0.074
0.9025	-10.778	-0.066
0.903	-10.778	-0.060
0.9035	-10.778	-0.054
0.904	-10.778	-0.054
0.9045	-10.778	-0.055
0.905	-10.778	-0.044
0.9055	-10.778	-0.040
0.906	-10.778	-0.036
0.9065	-10.778	-0.017
0.907	-10.778	-0.015
0.9075	-10.778	0.014
0.908	-10.778	0.004
0.9085	-10.778	0.011
0.909	-10.778	0.023
0.9095	-10.778	0.019
0.91	-10.778	0.035
0.9105	-10.778	0.036
0.911	-10.778	0.040
0.9115	-10.778	0.006
0.912	-10.778	-0.000
0.9125	-10.778	0.015
0.913	-10.778	-0.004
0.9135	-10.778	0.012
0.914	-10.778	0.004
0.9145	-10.778	0.002
0.915	-10.778	-0.026
0.9155	-10.778	-0.040
0.916	-10.778	-0.066
0.9165	-10.778	-0.055
0.917	-10.778	-0.060
0.9175	-10.778	-0.060
0.918	-10.778	-0.062
0.9185	-10.778	-0.086
0.919	-10.778	-0.082
0.9195	-10.778	-0.069
0.92	-10.778	-0.056
0.9205	-10.778	-0.062
0.921	-10.778	-0.073
0.9215	-10.778	-0.065
0.922	-10.778	-0.057
0.9225	-10.778	-0.044
0.923	-10.778	-0.024
0.9235	-10.778	0.006
0.924	-10.778	0.016
0.9245	-10.778	0.018
0.925	-10.778	0.009
0.9255	-10.778	0.009
0.926	-10.778	0.015
0.9265	-10.778	0.015
0.927	-10.778	0.025
0.9275	-10.778	0.019
0.928	-10.778	0.022
0.9285	-10.778	-0.005
0.929	-10.778	0.001
0.9295	-10.778	0.013
0.93	-10.778	-0.008
0.9305	-10.778	0.016
0.931	-10.778	0.006
0.9315	-10.778	-0.009
0.932	-10.778	-0.030
0.9325	-10.778	-0.062
0.933	-10.778	-0.065
0.9335	-10.778	-0.075
0.934	-10.778	-0.060
0.9345	-10.778	-0.071
0.935	-10.778	-0.063
0.9355	-10.778	-0.072
0.936	-10.778	-0.063
0.9365	-10.780	-0.050
0.937	-10.780	-0.053
0.9375	-10.780	-0.047
0.938	-10.780	-0.057
0.9385	-10.780	-0.041
0.939	-10.780	-0.037
0.9395	-10.780	-0.013
0.94	-10.780	0.016
0.9405	-10.780	-0.003
0.941	-10.780	0.013
0.9415	-10.780	0.001
0.942	-10.780	-0.003
0.9425	-10.780	-0.004
0.943	-10.780	0.013
0.9435	-10.780	0.034
0.944	-10.780	0.036
0.9445	-10.780	0.027
0.945	-10.780	0.002
0.9455	-10.780	-0.003
0.946	-10.780	0.003
0.9465	-10.780	0.009
0.947	-10.780	0.001
0.9475	-10.780	-0.003
0.948	-10.780	-0.015
0.9485	-10.780	-0.034
0.949	-10.780	-0.047
0.9495	-10.780	-0.062
0.95	-10.780	-0.054
0.9505	-10.780	-0.066
0.951	-10.780	-0.053
0.9515	-10.780	-0.070
0.952	-10.780	-0.071
0.9525	-10.780	-0.071
0.953	-10.780	-0.068
0.9535	-10.780	-0.045
0.954	-10.780	-0.057
0.9545	-10.780	-0.045
0.955	-10.780	-0.029
0.9555	-10.780	-0.022
0.956	-10.780	-0.024
0.9565	-10.780	-0.013
0.957	-10.780	-0.016
0.9575	-10.780	-0.010
0.958	-10.780	-0.000
0.9585	-10.780	-0.002
0.959	-10.780	-0.001
0.9595	-10.780	0.013
0.96	-10.780	0.032
0.9605	-10.780	0.035
0.961	-10.780	0.025
0.9615	-10.780	0.011
0.962	-10.780	-0.001
0.9625	-10.780	0.005
0.963	-10.780	0.009
0.9635	-10.780	0.004
0.964	-10.780	-0.008
0.9645	-10.780	-0.021
0.965	-10.780	-0.042
0.9655	-10.780	-0.047
0.966	-10.780	-0.072
0.9665	-10.780	-0.058
0.967	-10.780	-0.059
0.9675	-10.780	-0.057
0.968	-10.780	-0.061
0.9685	-10.780	-0.087
0.969	-10.780	-0.087
0.9695	-10.780	-0.070
0.97	-10.780	-0.055
0.9705	-10.780	-0.034
0.971	-10.780	-0.052
0.9715	-10.780	-0.050
0.972	-10.780	-0.044
0.9725	-10.780	-0.027
0.973	-10.780	-0.021
0.9735	-10.780	-0.012
0.974	-10.780	0.001
0.9745	-10.780	-0.004
0.975	-10.780	0.013
0.9755	-10.780	0.010
0.976	-10.780	0.021
0.9765	-10.780	0.028
0.977	-10.780	0.039
0.9775	-10.780	0.030
0.978	-10.780	0.006
0.9785	-10.780	0.008
0.979	-10.780	0.009
0.9795	-10.780	0.022
0.98	-10.780	0.018
0.9805	-10.780	0.015
0.981	-10.780	-0.004
0.9815	-10.780	-0.038
0.982	-10.781	-0.047
0.9825	-10.781	-0.070
0.983	-10.781	-0.070
0.9835	-10.781	-0.070
0.984	-10.781	-0.070
0.9845	-10.781	-0.066
0.985	-10.781	-0.065
0.9855	-10.781	-0.064
0.986	-10.781	-0.074
0.9865	-10.781	-0.049
0.987	-10.781	-0.036
0.9875	-10.781	-0.062
0.988	-10.781	-0.050
0.9885	-10.781	-0.040
0.989	-10.781	-0.039
0.9895	-10.781	-0.019
0.99	-10.781	-0.002
0.9905	-10.781	0.007
0.991	-10.781	0.021
0.9915	-10.781	0.010
0.992	-10.781	0.002
0.9925	-10.781	0.005
0.993	-10.781	0.015
0.9935	-10.781	0.019
0.994	-10.781	0.027
0.9945	-10.781	0.021
0.995	-10.781	0.006
0.9955	-10.781	0.019
0.996	-10.781	0.017
0.9965	-10.781	0.014
0.997	-10.781	0.014
0.9975	-10.781	0.006
0.998	-10.781	-0.005
0.9985	-10.781	-0.041
0.999	-10.781	-0.056
0.9995	-10.781	-0.090
1.0	-10.781	-0.087
1.0005	-10.781	-0.076
1.001	-10.781	-0.073
1.0015	-10.781	-0.075
1.002	-10.781	-0.096
1.0025	-10.781	-0.074
1.003	-10.781	-0.063
1.0035	-10.781	-0.050
1.004	-10.781	-0.051
1.0045	-10.781	-0.052
1.005	-10.781	-0.047
1.0055	-10.781	-0.034
1.006	-10.781	-0.011
1.0065	-10.781	-0.003
1.007	-10.781	-0.009
1.0075	-10.781	-0.003
1.008	-10.781	0.005
1.0085	-10.781	0.008
1.009	-10.781	0.007
1.0095	-10.781	0.020
1.01	-10.781	0.035
1.0105	-10.781	0.031
1.011	-10.781	0.026
1.0115	-10.781	0.016
1.012	-10.781	0.016
1.0125	-10.781	0.019
1.013	-10.781	0.022
1.0135	-10.781	0.007
1.014	-10.781	-0.011
1.0145	-10.781	-0.028
1.015	-10.781	-0.042
1.0155	-10.781	-0.047
1.016	-10.781	-0.056
1.0165	-10.781	-0.059
1.017	-10.781	-0.072
1.0175	-10.781	-0.080
1.018	-10.781	-0.076
1.0185	-10.781	-0.075
1.019	-10.781	-0.093
1.0195	-10.781	-0.078
1.02	-10.781	-0.066
1.0205	-10.781	-0.050
1.021	-10.781	-0.058
1.0215	-10.781	-0.049
1.022	-10.781	-0.038
1.0225	-10.781	-0.048
1.023	-10.781	-0.016
1.0235	-10.781	0.001
1.024	-10.783	0.011
1.0245	-10.783	-0.003
1.025	-10.783	-0.013
1.0255	-10.783	0.009
1.026	-10.783	0.008
1.0265	-10.783	0.042
1.027	-10.783	0.043
1.0275	-10.783	0.047
1.028	-10.783	0.030
1.0285	-10.783	0.026
1.029	-10.783	0.027
1.0295	-10.783	0.014
1.03	-10.783	0.007
1.0305	-10.783	-0.014
1.031	-10.783	-0.022
1.0315	-10.783	-0.033
1.032	-10.783	-0.052
1.0325	-10.783	-0.061
1.033	-10.783	-0.070
1.0335	-10.783	-0.066
1.034	-10.783	-0.061
1.0345	-10.783	-0.070
1.035	-10.783	-0.073
1.0355	-10.783	-0.077
1.036	-10.783	-0.061
1.0365	-10.783	-0.050
1.037	-10.783	-0.050
1.0375	-10.783	-0.048
1.038	-10.783	-0.045
1.0385	-10.783	-0.040
1.039	-10.783	-0.021
1.0395	-10.783	-0.016
1.04	-10.783	-0.006
1.0405	-10.783	-0.002
1.041	-10.783	0.007
1.0415	-10.783	-0.000
1.042	-10.783	0.000
1.0425	-10.783	0.011
1.043	-10.783	0.008
1.0435	-10.783	0.035
1.044	-10.783	0.031
1.0445	-10.783	0.028
1.045	-10.783	0.015
1.0455	-10.783	0.001
1.046	-10.783	0.009
1.0465	-10.783	0.000
1.047	-10.783	0.013
1.0475	-10.783	-0.010
1.048	-10.783	-0.031
1.0485	-10.783	-0.047
1.049	-10.783	-0.048
1.0495	-10.783	-0.059
1.05	-10.783	-0.062
1.0505	-10.783	-0.058
1.051	-10.783	-0.066
1.0515	-10.783	-0.085
1.052	-10.783	-0.088
1.0525	-10.783	-0.075
1.053	-10.783	-0.065
1.0535	-10.783	-0.048
1.054	-10.783	-0.047
1.0545	-10.783	-0.065
1.055	-10.783	-0.044
1.0555	-10.783	-0.020
1.056	-10.783	-0.008
1.0565	-10.783	-0.002
1.057	-10.783	-0.005
1.0575	-10.783	0.012
1.058	-10.783	0.022
1.0585	-10.783	0.012
1.059	-10.783	0.008
1.0595	-10.783	0.017
1.06	-10.783	0.028
1.0605	-10.783	0.039
1.061	-10.783	0.032
1.0615	-10.783	0.014
1.062	-10.783	0.007
1.0625	-10.783	0.010
1.063	-10.783	0.008
1.0635	-10.783	-0.003
1.064	-10.783	-0.000
1.0645	-10.783	-0.006
1.065	-10.784	-0.020
1.0655	-10.784	-0.031
1.066	-10.784	-0.040
1.0665	-10.784	-0.047
1.067	-10.784	-0.076
1.0675	-10.784	-0.077
1.068	-10.784	-0.081
1.0685	-10.784	-0.085
1.069	-10.784	-0.085
1.0695	-10.784	-0.081
1.07	-10.784	-0.056
1.0705	-10.784	-0.056
1.071	-10.784	-0.044
1.0715	-10.784	-0.047
1.072	-10.784	-0.038
1.0725	-10.784	-0.031
1.073	-10.784	-0.014
1.0735	-10.784	0.002
1.074	-10.784	0.001
1.0745	-10.784	0.010
1.075	-10.784	0.013
1.0755	-10.784	0.012
1.076	-10.784	0.018
1.0765	-10.784	0.023
1.077	-10.784	0.047
1.0775	-10.784	0.034
1.078	-10.784	0.014
1.0785	-10.784	-0.005
1.079	-10.784	0.003
1.0795	-10.784	0.015
1.08	-10.784	0.012
1.0805	-10.784	0.020
1.081	-10.784	0.010
1.0815	-10.784	-0.018
1.082	-10.784	-0.033
1.0825	-10.784	-0.061
1.083	-10.784	-0.060
1.0835	-10.784	-0.065
1.084	-10.784	-0.058
1.0845	-10.784	-0.066
1.085	-10.784	-0.070
1.0855	-10.784	-0.077
1.086	-10.784	-0.075
1.0865	-10.784	-0.054
1.087	-10.784	-0.032
1.0875	-10.784	-0.036
1.088	-10.784	-0.035
1.0885	-10.784	-0.040
1.089	-10.784	-0.026
1.0895	-10.784	-0.023
1.09	-10.784	-0.010
1.0905	-10.784	-0.000
1.091	-10.784	-0.011
1.0915	-10.784	0.008
1.092	-10.784	0.012
1.0925	-10.784	0.019
1.093	-10.784	0.034
1.0935	-10.784	0.039
1.094	-10.784	0.031
1.0945	-10.784	0.011
1.095	-10.784	-0.003
1.0955	-10.784	-0.009
1.096	-10.784	-0.007
1.0965	-10.784	-0.010
1.097	-10.784	-0.014
1.0975	-10.784	-0.005
1.098	-10.784	-0.025
1.0985	-10.784	-0.030
1.099	-10.784	-0.045
1.0995	-10.784	-0.053
1.1	-10.784	-0.055
1.1005	-10.784	-0.062
1.101	-10.784	-0.058
1.1015	-10.784	-0.061
1.102	-10.784	-0.074
1.1025	-10.784	-0.065
1.103	-10.784	-0.060
1.1035	-10.784	-0.046
1.104	-10.784	-0.049
1.1045	-10.784	-0.051
1.105	-10.784	-0.045
1.1055	-10.784	-0.042
1.106	-10.786	-0.027
1.1065	-10.786	-0.024
1.107	-10.786	-0.011
1.1075	-10.786	0.007
1.108	-10.786	0.011
1.1085	-10.786	0.009
1.109	-10.786	0.006
1.1095	-10.786	0.018
1.11	-10.786	0.026
1.1105	-10.786	0.043
1.111	-10.786	0.033
1.1115	-10.786	0.015
1.112	-10.786	0.019
1.1125	-10.786	-0.006
1.113	-10.786	-0.008
1.1135	-10.786	-0.007
1.114	-10.786	-0.017
1.1145	-10.786	-0.023
1.115	-10.786	-0.038
1.1155	-10.786	-0.047
1.116	-10.786	-0.066
1.1165	-10.786	-0.071
1.117	-10.786	-0.078
1.1175	-10.786	-0.080
1.118	-10.786	-0.080
1.1185	-10.786	-0.088
1.119	-10.786	-0.089
1.1195	-10.786	-0.083
1.12	-10.786	-0.062
1.1205	-10.786	-0.045
1.121	-10.786	-0.048
1.1215	-10.786	-0.036
1.122	-10.786	-0.038
1.1225	-10.786	-0.021
1.123	-10.786	-0.020
1.1235	-10.786	0.005
1.124	-10.786	0.008
1.1245	-10.786	0.014
1.125	-10.786	0.009
1.1255	-10.786	0.019
1.126	-10.786	0.015
1.1265	-10.786	0.019
1.127	-10.786	0.022
1.1275	-10.786	0.029
1.128	-10.786	0.021
1.1285	-10.786	0.007
1.129	-10.786	0.008
1.1295	-10.786	0.017
1.13	-10.786	0.016
1.1305	-10.786	0.007
1.131	-10.786	-0.010
1.1315	-10.786	-0.023
1.132	-10.786	-0.054
1.1325	-10.786	-0.060
1.133	-10.786	-0.080
1.1335	-10.786	-0.075
1.134	-10.786	-0.077
1.1345	-10.786	-0.076
1.135	-10.786	-0.073
1.1355	-10.786	-0.085
1.136	-10.786	-0.074
1.1365	-10.786	-0.059
1.137	-10.786	-0.044
1.1375	-10.786	-0.049
1.138	-10.786	-0.042
1.1385	-10.786	-0.042
1.139	-10.786	-0.043
1.1395	-10.786	-0.022
1.14	-10.786	-0.012
1.1405	-10.786	-0.002
1.141	-10.786	0.019
1.1415	-10.786	0.006
1.142	-10.786	0.009
1.1425	-10.786	0.003
1.143	-10.786	0.024
1.1435	-10.786	0.043
1.144	-10.786	0.050
1.1445	-10.786	0.051
1.145	-10.786	0.009
1.1455	-10.786	-0.006
1.146	-10.786	-0.003
1.1465	-10.786	-0.000
1.147	-10.786	0.002
1.1475	-10.786	-0.002
1.148	-10.786	-0.013
1.1485	-10.786	-0.035
1.149	-10.786	-0.046
1.1495	-10.786	-0.058
1.15	-10.788	-0.063
1.1505	-10.788	-0.065
1.151	-10.788	-0.071
1.1515	-10.788	-0.072
1.152	-10.788	-0.088
1.1525	-10.788	-0.086
1.153	-10.788	-0.054
1.1535	-10.788	-0.053
1.154	-10.788	-0.046
1.1545	-10.788	-0.062
1.155	-10.788	-0.057
1.1555	-10.788	-0.031
1.156	-10.788	-0.026
1.1565	-10.788	-0.009
1.157	-10.788	-0.007
1.1575	-10.788	0.014
1.158	-10.788	-0.001
1.1585	-10.788	0.020
1.159	-10.788	0.019
1.1595	-10.788	0.007
1.16	-10.788	0.013
1.1605	-10.788	0.021
1.161	-10.788	0.023
1.1615	-10.788	0.017
1.162	-10.788	0.007
1.1625	-10.788	0.020
1.163	-10.788	0.013
1.1635	-10.788	0.007
1.164	-10.788	0.005
1.1645	-10.788	-0.007
1.165	-10.788	-0.036
1.1655	-10.788	-0.045
1.166	-10.788	-0.059
1.1665	-10.788	-0.064
1.167	-10.788	-0.068
1.1675	-10.788	-0.067
1.168	-10.788	-0.078
1.1685	-10.788	-0.083
1.169	-10.788	-0.069
1.1695	-10.788	-0.058
1.17	-10.788	-0.054
1.1705	-10.788	-0.040
1.171	-10.788	-0.039
1.1715	-10.788	-0.058
1.172	-10.788	-0.060
1.1725	-10.788	-0.035
1.173	-10.788	-0.017
1.1735	-10.788	-0.005
1.174	-10.788	0.015
1.1745	-10.788	0.007
1.175	-10.788	-0.007
1.1755	-10.788	-0.001
1.176	-10.788	0.004
1.1765	-10.788	0.002
1.177	-10.788	0.024
1.1775	-10.788	0.018
1.178	-10.788	0.016
1.1785	-10.788	0.008
1.179	-10.788	0.003
1.1795	-10.788	0.001
1.18	-10.788	-0.012
1.1805	-10.788	-0.005
1.181	-10.788	-0.011
1.1815	-10.788	-0.015
1.182	-10.788	-0.039
1.1825	-10.788	-0.061
1.183	-10.788	-0.073
1.1835	-10.788	-0.075
1.184	-10.788	-0.072
1.1845	-10.788	-0.074
1.185	-10.788	-0.075
1.1855	-10.788	-0.080
1.186	-10.788	-0.073
1.1865	-10.788	-0.059
1.187	-10.788	-0.056
1.1875	-10.788	-0.058
1.188	-10.788	-0.059
1.1885	-10.788	-0.049
1.189	-10.788	-0.031
1.1895	-10.788	-0.020
1.19	-10.788	-0.008
1.1905	-10.788	-0.002
1.191	-10.788	0.016
1.1915	-10.788	0.006
1.192	-10.788	0.016
1.1925	-10.788	0.022
1.193	-10.788	0.017
1.1935	-10.788	0.025
1.194	-10.788	0.047
1.1945	-10.788	0.033
1.195	-10.788	-0.002
1.1955	-10.788	0.004
1.196	-10.788	0.006
1.1965	-10.788	0.008
1.197	-10.788	0.004
1.1975	-10.788	0.000
1.198	-10.788	-0.036
1.1985	-10.788	-0.046
1.199	-10.788	-0.055
1.1995	-10.788	-0.067
1.2	-10.788	-0.059
1.2005	-10.788	-0.072
1.201	-10.788	-0.071
1.2015	-10.788	-0.081
1.202	-10.788	-0.089
1.2025	-10.788	-0.073
1.203	-10.788	-0.058
1.2035	-10.788	-0.044
1.204	-10.789	-0.056
1.2045	-10.789	-0.053
1.205	-10.789	-0.049
1.2055	-10.789	-0.036
1.206	-10.789	-0.026
1.2065	-10.789	-0.017
1.207	-10.789	-0.013
1.2075	-10.789	-0.006
1.208	-10.789	0.000
1.2085	-10.789	-0.010
1.209	-10.789	0.007
1.2095	-10.789	0.025
1.21	-10.789	0.023
1.2105	-10.789	0.032
1.211	-10.789	0.024
1.2115	-10.789	0.013
1.212	-10.789	-0.001
1.2125	-10.789	0.009
1.213	-10.789	-0.004
1.2135	-10.789	-0.001
1.214	-10.789	0.014
1.2145	-10.789	-0.008
1.215	-10.789	-0.028
1.2155	-10.789	-0.048
1.216	-10.789	-0.063
1.2165	-10.789	-0.071
1.217	-10.789	-0.069
1.2175	-10.789	-0.079
1.218	-10.789	-0.065
1.2185	-10.789	-0.081
1.219	-10.789	-0.085
1.2195	-10.789	-0.086
1.22	-10.789	-0.063
1.2205	-10.789	-0.052
1.221	-10.789	-0.060
1.2215	-10.789	-0.049
1.222	-10.789	-0.037
1.2225	-10.789	-0.025
1.223	-10.789	-0.018
1.2235	-10.789	-0.006
1.224	-10.789	0.004
1.2245	-10.789	0.001
1.225	-10.789	0.019
1.2255	-10.789	0.022
1.226	-10.789	0.032
1.2265	-10.789	0.035
1.227	-10.789	0.023
1.2275	-10.789	0.024
1.228	-10.789	0.008
1.2285	-10.789	0.009
1.229	-10.789	-0.004
1.2295	-10.789	0.013
1.23	-10.789	0.013
1.2305	-10.789	0.010
1.231	-10.789	0.003
1.2315	-10.789	-0.031
1.232	-10.789	-0.030
1.2325	-10.789	-0.061
1.233	-10.789	-0.071
1.2335	-10.789	-0.069
1.234	-10.789	-0.071
1.2345	-10.789	-0.067
1.235	-10.789	-0.080
1.2355	-10.789	-0.086
1.236	-10.789	-0.074
1.2365	-10.789	-0.053
1.237	-10.789	-0.051
1.2375	-10.789	-0.056
1.238	-10.789	-0.059
1.2385	-10.789	-0.052
1.239	-10.789	-0.033
1.2395	-10.789	-0.025
1.24	-10.789	-0.004
1.2405	-10.789	0.010
1.241	-10.789	0.019
1.2415	-10.789	-0.005
1.242	-10.789	0.002
1.2425	-10.789	-0.008
1.243	-10.789	-0.001
1.2435	-10.789	0.003
1.244	-10.789	0.014
1.2445	-10.789	0.010
1.245	-10.789	-0.017
1.2455	-10.789	-0.009
1.246	-10.789	-0.005
1.2465	-10.789	-0.007
1.247	-10.789	-0.002
1.2475	-10.789	-0.007
1.248	-10.789	-0.019
1.2485	-10.789	-0.040
1.249	-10.789	-0.046
1.2495	-10.789	-0.066
1.25	-10.789	-0.070
1.2505	-10.789	-0.070
1.251	-10.789	-0.054
1.2515	-10.789	-0.045
1.252	-10.789	-0.063
1.2525	-10.789	-0.065
1.253	-10.789	-0.055
1.2535	-10.789	-0.038
1.254	-10.789	-0.051
1.2545	-10.789	-0.051
1.255	-10.789	-0.043
1.2555	-10.789	-0.031
1.256	-10.789	-0.018
1.2565	-10.789	-0.006
1.257	-10.789	0.003
1.2575	-10.789	0.020
1.258	-10.789	0.005
1.2585	-10.789	0.003
1.259	-10.789	0.013
1.2595	-10.789	0.010
1.26	-10.789	0.024
1.2605	-10.789	0.027
1.261	-10.789	0.031
1.2615	-10.789	0.008
1.262	-10.789	0.001
1.2625	-10.789	0.004
1.263	-10.789	-0.003
1.2635	-10.789	-0.005
1.264	-10.789	-0.009
1.2645	-10.789	-0.031
1.265	-10.789	-0.027
1.2655	-10.789	-0.037
1.266	-10.789	-0.051
1.2665	-10.789	-0.053
1.267	-10.789	-0.052
1.2675	-10.789	-0.073
1.268	-10.789	-0.074
1.2685	-10.789	-0.073
1.269	-10.789	-0.096
1.2695	-10.789	-0.075
1.27	-10.789	-0.057
1.2705	-10.789	-0.049
1.271	-10.789	-0.059
1.2715	-10.789	-0.060
1.272	-10.789	-0.053
1.2725	-10.789	-0.038
1.273	-10.789	-0.020
1.2735	-10.789	-0.012
1.274	-10.789	0.005
1.2745	-10.789	0.022
1.275	-10.789	0.009
1.2755	-10.789	0.013
1.276	-10.789	0.016
1.2765	-10.789	0.028
1.277	-10.789	0.039
1.2775	-10.789	0.037
1.278	-10.789	0.015
1.2785	-10.789	-0.004
1.279	-10.789	0.003
1.2795	-10.789	-0.005
1.28	-10.789	-0.003
1.2805	-10.789	-0.007
1.281	-10.789	0.002
1.2815	-10.789	-0.019
1.282	-10.789	-0.044
1.2825	-10.789	-0.060
1.283	-10.789	-0.077
1.2835	-10.789	-0.067
1.284	-10.789	-0.072
1.2845	-10.789	-0.076
1.285	-10.789	-0.090
1.2855	-10.789	-0.094
1.286	-10.789	-0.090
1.2865	-10.789	-0.070
1.287	-10.789	-0.059
1.2875	-10.789	-0.047
1.288	-10.789	-0.056
1.2885	-10.789	-0.046
1.289	-10.789	-0.023
1.2895	-10.789	-0.019
1.29	-10.789	0.001
1.2905	-10.789	0.007
1.291	-10.789	0.017
1.2915	-10.789	-0.000
1.292	-10.789	0.002
1.2925	-10.789	0.006
1.293	-10.789	0.006
1.2935	-10.789	0.024
1.294	-10.789	0.026
1.2945	-10.789	0.024
1.295	-10.789	0.003
1.2955	-10.789	-0.003
1.296	-10.789	-0.001
1.2965	-10.789	-0.002
1.297	-10.789	0.002
1.2975	-10.789	0.005
1.298	-10.789	-0.016
1.2985	-10.789	-0.045
1.299	-10.789	-0.064
1.2995	-10.789	-0.079
1.3	-10.789	-0.085
1.3005	-10.789	-0.082
1.301	-10.789	-0.082
1.3015	-10.789	-0.084
1.302	-10.789	-0.096
1.3025	-10.789	-0.090
1.303	-10.789	-0.077
1.3035	-10.789	-0.056
1.304	-10.789	-0.043
1.3045	-10.789	-0.046
1.305	-10.789	-0.045
1.3055	-10.789	-0.030
1.306	-10.789	-0.013
1.3065	-10.789	-0.001
1.307	-10.789	0.002
1.3075	-10.789	0.002
1.308	-10.789	-0.018
1.3085	-10.789	-0.022
1.309	-10.789	-0.005
1.3095	-10.789	0.016
1.31	-10.789	0.029
1.3105	-10.789	0.027
1.311	-10.789	0.019
1.3115	-10.789	0.012
1.312	-10.789	0.009
1.3125	-10.789	0.018
1.313	-10.789	0.018
1.3135	-10.789	0.006
1.314	-10.789	0.005
1.3145	-10.789	-0.010
1.315	-10.789	-0.032
1.3155	-10.789	-0.045
1.316	-10.789	-0.059
1.3165	-10.789	-0.065
1.317	-10.789	-0.080
1.3175	-10.789	-0.071
1.318	-10.789	-0.078
1.3185	-10.789	-0.086
1.319	-10.789	-0.078
1.3195	-10.789	-0.067
1.32	-10.789	-0.047
1.3205	-10.789	-0.050
1.321	-10.789	-0.061
1.3215	-10.789	-0.055
1.322	-10.789	-0.048
1.3225	-10.789	-0.036
1.323	-10.789	-0.026
1.3235	-10.789	-0.002
1.324	-10.789	0.007
1.3245	-10.789	0.015
1.325	-10.789	0.003
1.3255	-10.789	0.015
1.326	-10.789	0.018
1.3265	-10.789	0.018
1.327	-10.789	0.041
1.3275	-10.789	0.034
1.328	-10.789	0.019
1.3285	-10.789	0.005
1.329	-10.789	0.013
1.3295	-10.789	0.005
1.33	-10.789	0.005
1.3305	-10.789	-0.001
1.331	-10.789	-0.007
1.3315	-10.789	-0.036
1.332	-10.789	-0.034
1.3325	-10.789	-0.046
1.333	-10.789	-0.055
1.3335	-10.789	-0.062
1.334	-10.789	-0.073
1.3345	-10.789	-0.063
1.335	-10.789	-0.083
1.3355	-10.789	-0.093
1.336	-10.789	-0.092
1.3365	-10.789	-0.055
1.337	-10.789	-0.045
1.3375	-10.789	-0.079
1.338	-10.789	-0.068
1.3385	-10.789	-0.063
1.339	-10.789	-0.044
1.3395	-10.789	-0.025
1.34	-10.789	-0.003
1.3405	-10.789	0.011
1.341	-10.789	0.011
1.3415	-10.789	0.007
1.342	-10.789	-0.007
1.3425	-10.789	0.009
1.343	-10.789	0.012
1.3435	-10.789	0.026
1.344	-10.789	0.027
1.3445	-10.789	0.024
1.345	-10.789	0.005
1.3455	-10.789	0.004
1.346	-10.789	0.006
1.3465	-10.789	0.004
1.347	-10.789	-0.012
1.3475	-10.789	0.003
1.348	-10.789	-0.022
1.3485	-10.789	-0.040
1.349	-10.789	-0.050
1.3495	-10.789	-0.068
1.35	-10.789	-0.056
1.3505	-10.789	-0.050
1.351	-10.789	-0.064
1.3515	-10.789	-0.088
1.352	-10.789	-0.104
1.3525	-10.789	-0.095
1.353	-10.789	-0.081
1.3535	-10.789	-0.058
1.354	-10.789	-0.053
1.3545	-10.789	-0.064
1.355	-10.789	-0.048
1.3555	-10.789	-0.045
1.356	-10.789	-0.022
1.3565	-10.789	-0.025
1.357	-10.789	-0.007
1.3575	-10.789	0.002
1.358	-10.789	-0.008
1.3585	-10.789	0.011
1.359	-10.789	0.013
1.3595	-10.789	0.021
1.36	-10.789	0.026
1.3605	-10.789	0.028
1.361	-10.789	0.034
1.3615	-10.789	0.010
1.362	-10.789	0.006
1.3625	-10.789	0.013
1.363	-10.789	0.011
1.3635	-10.789	-0.005
1.364	-10.789	-0.010
1.3645	-10.789	-0.019
1.365	-10.789	-0.037
1.3655	-10.789	-0.044
1.366	-10.789	-0.058
1.3665	-10.789	-0.069
1.367	-10.789	-0.067
1.3675	-10.789	-0.073
1.368	-10.789	-0.072
1.3685	-10.789	-0.088
1.369	-10.789	-0.103
1.3695	-10.789	-0.092
1.37	-10.789	-0.075
1.3705	-10.789	-0.072
1.371	-10.789	-0.066
1.3715	-10.789	-0.058
1.372	-10.789	-0.050
1.3725	-10.789	-0.039
1.373	-10.789	-0.028
1.3735	-10.789	-0.017
1.374	-10.789	-0.003
1.3745	-10.789	0.004
1.375	-10.789	-0.007
1.3755	-10.789	0.011
1.376	-10.789	0.019
1.3765	-10.789	0.033
1.377	-10.789	0.036
1.3775	-10.789	0.046
1.378	-10.789	0.022
1.3785	-10.789	-0.004
1.379	-10.789	0.007
1.3795	-10.789	0.011
1.38	-10.789	-0.001
1.3805	-10.789	0.001
1.381	-10.789	-0.006
1.3815	-10.789	-0.026
1.382	-10.789	-0.060
1.3825	-10.789	-0.067
1.383	-10.789	-0.077
1.3835	-10.789	-0.067
1.384	-10.789	-0.064
1.3845	-10.789	-0.060
1.385	-10.789	-0.059
1.3855	-10.789	-0.081
1.386	-10.789	-0.075
1.3865	-10.789	-0.052
1.387	-10.789	-0.053
1.3875	-10.789	-0.057
1.388	-10.789	-0.051
1.3885	-10.789	-0.045
1.389	-10.789	-0.020
1.3895	-10.789	-0.013
1.39	-10.789	-0.001
1.3905	-10.789	0.014
1.391	-10.789	0.032
1.3915	-10.789	0.015
1.392	-10.789	0.019
1.3925	-10.789	0.024
1.393	-10.789	0.031
1.3935	-10.789	0.040
1.394	-10.789	0.044
1.3945	-10.789	0.029
1.395	-10.789	0.015
1.3955	-10.789	0.020
1.396	-10.789	0.035
1.3965	-10.789	0.037
1.397	-10.789	0.024
1.3975	-10.789	-0.007
1.398	-10.789	-0.024
1.3985	-10.789	-0.024
1.399	-10.789	-0.045
1.3995	-10.789	-0.064
1.4	-10.789	-0.070
1.4005	-10.789	-0.077
1.401	-10.789	-0.091
1.4015	-10.789	-0.088
1.402	-10.789	-0.087
1.4025	-10.789	-0.086
1.403	-10.789	-0.052
1.4035	-10.789	-0.040
1.404	-10.789	-0.056
1.4045	-10.789	-0.057
1.405	-10.789	-0.052
1.4055	-10.789	-0.042
1.406	-10.789	-0.029
1.4065	-10.789	-0.012
1.407	-10.789	-0.008
1.4075	-10.789	0.004
1.408	-10.789	0.003
1.4085	-10.789	-0.005
1.409	-10.789	-0.002
1.4095	-10.789	0.003
1.41	-10.789	0.019
1.4105	-10.789	0.029
1.411	-10.789	0.033
1.4115	-10.789	0.025
1.412	-10.789	0.007
1.4125	-10.789	0.015
1.413	-10.789	0.003
1.4135	-10.789	0.003
1.414	-10.789	0.008
1.4145	-10.789	-0.005
1.415	-10.789	-0.021
1.4155	-10.789	-0.030
1.416	-10.789	-0.044
1.4165	-10.789	-0.051
1.417	-10.789	-0.054
1.4175	-10.789	-0.054
1.418	-10.789	-0.062
1.4185	-10.789	-0.068
1.419	-10.789	-0.060
1.4195	-10.789	-0.065
1.42	-10.789	-0.048
1.4205	-10.789	-0.055
1.421	-10.789	-0.066
1.4215	-10.789	-0.064
1.422	-10.789	-0.053
1.4225	-10.789	-0.044
1.423	-10.789	-0.032
1.4235	-10.789	-0.008
1.424	-10.789	-0.009
1.4245	-10.789	-0.007
1.425	-10.789	-0.007
1.4255	-10.789	0.011
1.426	-10.789	0.021
1.4265	-10.789	-0.016
1.427	-10.789	-0.010
1.4275	-10.789	-0.007
1.428	-10.789	-0.015
1.4285	-10.789	-0.026
1.429	-10.789	-0.027
1.4295	-10.789	-0.007
1.43	-10.789	-0.018
1.4305	-10.789	0.002
1.431	-10.789	-0.009
1.4315	-10.789	-0.032
1.432	-10.789	-0.051
1.4325	-10.789	-0.073
1.433	-10.789	-0.078
1.4335	-10.789	-0.076
1.434	-10.789	-0.065
1.4345	-10.789	-0.066
1.435	-10.789	-0.077
1.4355	-10.789	-0.071
1.436	-10.789	-0.068
1.4365	-10.788	-0.057
1.437	-10.788	-0.055
1.4375	-10.788	-0.054
1.438	-10.788	-0.065
1.4385	-10.788	-0.043
1.439	-10.788	-0.031
1.4395	-10.788	-0.024
1.44	-10.788	-0.017
1.4405	-10.788	-0.007
1.441	-10.788	0.001
1.4415	-10.788	-0.003
1.442	-10.788	-0.002
1.4425	-10.788	-0.001
1.443	-10.788	0.002
1.4435	-10.788	0.023
1.444	-10.788	0.037
1.4445	-10.788	0.026
1.445	-10.788	0.005
1.4455	-10.788	0.002
1.446	-10.788	0.004
1.4465	-10.788	0.007
1.447	-10.788	-0.009
1.4475	-10.788	-0.008
1.448	-10.788	-0.030
1.4485	-10.788	-0.037
1.449	-10.788	-0.050
1.4495	-10.788	-0.062
1.45	-10.788	-0.056
1.4505	-10.788	-0.075
1.451	-10.788	-0.060
1.4515	-10.788	-0.068
1.452	-10.788	-0.076
1.4525	-10.788	-0.069
1.453	-10.788	-0.064
1.4535	-10.788	-0.038
1.454	-10.788	-0.048
1.4545	-10.788	-0.051
1.455	-10.788	-0.050
1.4555	-10.788	-0.034
1.456	-10.788	-0.021
1.4565	-10.788	-0.011
1.457	-10.788	0.002
1.4575	-10.788	0.014
1.458	-10.788	0.008
1.4585	-10.788	0.017
1.459	-10.788	0.026
1.4595	-10.788	0.036
1.46	-10.788	0.043
1.4605	-10.788	0.043
1.461	-10.788	0.032
1.4615	-10.788	0.011
1.462	-10.788	0.003
1.4625	-10.788	0.009
1.463	-10.788	0.018
1.4635	-10.788	0.008
1.464	-10.788	0.001
1.4645	-10.788	-0.017
1.465	-10.788	-0.034
1.4655	-10.788	-0.044
1.466	-10.788	-0.062
1.4665	-10.788	-0.066
1.467	-10.788	-0.063
1.4675	-10.788	-0.084
1.468	-10.788	-0.080
1.4685	-10.788	-0.094
1.469	-10.788	-0.087
1.4695	-10.788	-0.083
1.47	-10.788	-0.067
1.4705	-10.788	-0.063
1.471	-10.788	-0.077
1.4715	-10.788	-0.058
1.472	-10.788	-0.057
1.4725	-10.788	-0.051
1.473	-10.788	-0.025
1.4735	-10.788	-0.018
1.474	-10.788	-0.001
1.4745	-10.788	-0.010
1.475	-10.788	-0.003
1.4755	-10.788	0.006
1.476	-10.788	0.011
1.4765	-10.788	0.017
1.477	-10.788	0.018
1.4775	-10.788	0.020
1.478	-10.788	0.021
1.4785	-10.788	0.009
1.479	-10.788	0.013
1.4795	-10.788	0.010
1.48	-10.788	0.005
1.4805	-10.788	0.008
1.481	-10.788	0.007
1.4815	-10.788	-0.028
1.482	-10.788	-0.041
1.4825	-10.788	-0.067
1.483	-10.788	-0.068
1.4835	-10.788	-0.070
1.484	-10.788	-0.076
1.4845	-10.788	-0.072
1.485	-10.788	-0.072
1.4855	-10.788	-0.068
1.486	-10.788	-0.060
1.4865	-10.788	-0.034
1.487	-10.788	-0.018
1.4875	-10.788	-0.032
1.488	-10.788	-0.038
1.4885	-10.788	-0.026
1.489	-10.788	-0.017
1.4895	-10.788	-0.007
1.49	-10.788	0.005
1.4905	-10.788	0.011
1.491	-10.788	0.026
1.4915	-10.788	0.008
1.492	-10.788	0.013
1.4925	-10.788	0.011
1.493	-10.788	0.020
1.4935	-10.788	0.015
1.494	-10.788	0.014
1.4945	-10.788	0.024
1.495	-10.788	-0.008
1.4955	-10.788	-0.023
1.496	-10.788	-0.026
1.4965	-10.788	-0.032
1.497	-10.788	-0.040
1.4975	-10.788	-0.037
1.498	-10.788	-0.044
1.4985	-10.788	-0.055
1.499	-10.788	-0.064
1.4995	-10.788	-0.071
1.5	-10.788	-0.055
1.5005	-10.788	-0.050
1.501	-10.788	-0.053
1.5015	-10.788	-0.036
1.502	-10.788	-0.056
1.5025	-10.788	-0.061
1.503	-10.788	-0.065
1.5035	-10.788	-0.051
1.504	-10.788	-0.047
1.5045	-10.788	-0.047
1.505	-10.788	-0.044
1.5055	-10.788	-0.038
1.506	-10.788	-0.041
1.5065	-10.788	-0.019
1.507	-10.788	0.006
1.5075	-10.788	0.021
1.508	-10.788	0.008
1.5085	-10.788	0.017
1.509	-10.788	0.019
1.5095	-10.788	0.030
1.51	-10.788	0.061
1.5105	-10.788	0.057
1.511	-10.788	0.058
1.5115	-10.788	0.028
1.512	-10.788	0.011
1.5125	-10.788	0.015
1.513	-10.788	0.011
1.5135	-10.788	0.000
1.514	-10.788	-0.009
1.5145	-10.788	-0.019
1.515	-10.788	-0.044
1.5155	-10.788	-0.067
1.516	-10.788	-0.070
1.5165	-10.788	-0.062
1.517	-10.788	-0.047
1.5175	-10.788	-0.048
1.518	-10.788	-0.053
1.5185	-10.788	-0.058
1.519	-10.788	-0.051
1.5195	-10.788	-0.028
1.52	-10.788	-0.010
1.5205	-10.788	-0.019
1.521	-10.788	-0.009
1.5215	-10.788	-0.019
1.522	-10.788	-0.026
1.5225	-10.788	-0.031
1.523	-10.788	-0.029
1.5235	-10.788	-0.010
1.524	-10.788	0.003
1.5245	-10.788	0.010
1.525	-10.788	0.001
1.5255	-10.788	0.014
1.526	-10.788	0.015
1.5265	-10.788	0.025
1.527	-10.788	0.036
1.5275	-10.788	0.043
1.528	-10.788	0.037
1.5285	-10.788	0.029
1.529	-10.788	0.021
1.5295	-10.788	0.018
1.53	-10.788	0.001
1.5305	-10.788	-0.009
1.531	-10.788	-0.017
1.5315	-10.788	-0.032
1.532	-10.788	-0.041
1.5325	-10.788	-0.062
1.533	-10.788	-0.060
1.5335	-10.788	-0.060
1.534	-10.788	-0.057
1.5345	-10.788	-0.072
1.535	-10.788	-0.085
1.5355	-10.788	-0.077
1.536	-10.788	-0.075
1.5365	-10.788	-0.031
1.537	-10.788	-0.026
1.5375	-10.788	-0.029
1.538	-10.788	-0.041
1.5385	-10.788	-0.049
1.539	-10.788	-0.050
1.5395	-10.788	-0.050
1.54	-10.788	-0.007
1.5405	-10.788	0.014
1.541	-10.788	0.043
1.5415	-10.788	0.046
1.542	-10.788	0.039
1.5425	-10.788	0.049
1.543	-10.788	0.046
1.5435	-10.788	0.071
1.544	-10.788	0.064
1.5445	-10.788	0.069
1.545	-10.788	0.040
1.5455	-10.788	0.041
1.546	-10.788	0.037
1.5465	-10.788	0.029
1.547	-10.788	0.025
1.5475	-10.788	0.016
1.548	-10.788	-0.003
1.5485	-10.788	-0.015
1.549	-10.788	-0.030
1.5495	-10.788	-0.048
1.55	-10.788	-0.064
1.5505	-10.788	-0.061
1.551	-10.788	-0.069
1.5515	-10.788	-0.088
1.552	-10.788	-0.080
1.5525	-10.788	-0.066
1.553	-10.788	-0.041
1.5535	-10.788	-0.031
1.554	-10.788	-0.049
1.5545	-10.788	-0.063
1.555	-10.788	-0.069
1.5555	-10.788	-0.057
1.556	-10.788	-0.050
1.5565	-10.788	-0.025
1.557	-10.788	-0.003
1.5575	-10.788	0.003
1.558	-10.788	-0.016
1.5585	-10.788	-0.026
1.559	-10.788	-0.024
1.5595	-10.788	-0.014
1.56	-10.788	-0.024
1.5605	-10.788	0.003
1.561	-10.788	0.001
1.5615	-10.788	0.010
1.562	-10.788	0.013
1.5625	-10.788	0.008
1.563	-10.788	0.010
1.5635	-10.788	-0.011
1.564	-10.788	-0.007
1.5645	-10.788	-0.025
1.565	-10.788	-0.042
1.5655	-10.788	-0.055
1.566	-10.788	-0.057
1.5665	-10.788	-0.057
1.567	-10.788	-0.072
1.5675	-10.788	-0.093
1.568	-10.788	-0.130
1.5685	-10.788	-0.150
1.569	-10.788	-0.154
1.5695	-10.788	-0.130
1.57	-10.788	-0.103
1.5705	-10.788	-0.085
1.571	-10.788	-0.083
1.5715	-10.788	-0.083
1.572	-10.788	-0.076
1.5725	-10.788	-0.050
1.573	-10.788	-0.040
1.5735	-10.788	-0.005
1.574	-10.788	0.010
1.5745	-10.788	0.011
1.575	-10.788	0.006
1.5755	-10.788	0.001
1.576	-10.788	-0.005
1.5765	-10.788	0.010
1.577	-10.788	0.017
1.5775	-10.788	0.022
1.578	-10.788	-0.005
1.5785	-10.788	-0.017
1.579	-10.788	-0.002
1.5795	-10.788	0.023
1.58	-10.788	-0.002
1.5805	-10.788	-0.016
1.581	-10.788	-0.003
1.5815	-10.788	-0.036
1.582	-10.788	-0.045
1.5825	-10.788	-0.075
1.583	-10.788	-0.083
1.5835	-10.788	-0.074
1.584	-10.788	-0.092
1.5845	-10.788	-0.070
1.585	-10.788	-0.072
1.5855	-10.788	-0.045
1.586	-10.788	-0.042
1.5865	-10.788	-0.016
1.587	-10.788	-0.008
1.5875	-10.788	-0.025
1.588	-10.788	-0.018
1.5885	-10.788	-0.013
1.589	-10.788	0.006
1.5895	-10.788	0.014
1.59	-10.788	0.016
1.5905	-10.788	0.028
1.591	-10.788	0.014
1.5915	-10.788	-0.008
1.592	-10.788	-0.006
1.5925	-10.788	0.006
1.593	-10.788	0.032
1.5935	-10.788	0.035
1.594	-10.788	0.032
1.5945	-10.788	0.027
1.595	-10.788	0.017
1.5955	-10.788	0.031
1.596	-10.788	0.033
1.5965	-10.788	0.014
1.597	-10.788	-0.011
1.5975	-10.788	-0.012
1.598	-10.788	-0.004
1.5985	-10.788	-0.022
1.599	-10.788	-0.058
1.5995	-10.788	-0.076
1.6	-10.788	-0.081
1.6005	-10.788	-0.064
1.601	-10.788	-0.060
1.6015	-10.788	-0.065
1.602	-10.788	-0.081
1.6025	-10.788	-0.081
1.603	-10.788	-0.085
1.6035	-10.788	-0.060
1.604	-10.788	-0.067
1.6045	-10.788	-0.080
1.605	-10.788	-0.060
1.6055	-10.788	-0.052
1.606	-10.788	-0.037
1.6065	-10.788	-0.017
1.607	-10.788	-0.009
1.6075	-10.788	0.012
1.608	-10.788	-0.007
1.6085	-10.788	-0.006
1.609	-10.788	-0.007
1.6095	-10.788	-0.006
1.61	-10.788	0.011
1.6105	-10.788	0.004
1.611	-10.788	0.010
1.6115	-10.788	0.000
1.612	-10.788	0.002
1.6125	-10.788	0.009
1.613	-10.788	0.004
1.6135	-10.788	0.008
1.614	-10.788	0.018
1.6145	-10.788	0.018
1.615	-10.788	0.003
1.6155	-10.788	0.001
1.616	-10.788	-0.023
1.6165	-10.788	-0.029
1.617	-10.788	-0.034
1.6175	-10.788	-0.036
1.618	-10.788	-0.045
1.6185	-10.788	-0.050
1.619	-10.788	-0.054
1.6195	-10.788	-0.053
1.62	-10.788	-0.035
1.6205	-10.788	-0.016
1.621	-10.788	0.001
1.6215	-10.788	0.026
1.622	-10.788	0.047
1.6225	-10.788	0.048
1.623	-10.788	0.072
1.6235	-10.788	0.083
1.624	-10.788	0.110
1.6245	-10.788	0.110
1.625	-10.788	0.098
1.6255	-10.788	0.102
1.626	-10.788	0.100
1.6265	-10.788	0.107
1.627	-10.788	0.100
1.6275	-10.788	0.091
1.628	-10.788	0.085
1.6285	-10.788	0.043
1.629	-10.788	0.044
1.6295	-10.788	0.055
1.63	-10.788	0.054
1.6305	-10.788	0.030
1.631	-10.788	0.013
1.6315	-10.788	-0.020
1.632	-10.788	-0.071
1.6325	-10.788	-0.112
1.633	-10.788	-0.129
1.6335	-10.788	-0.138
1.634	-10.788	-0.151
1.6345	-10.788	-0.162
1.635	-10.788	-0.186
1.6355	-10.788	-0.193
1.636	-10.788	-0.186
1.6365	-10.788	-0.168
1.637	-10.788	-0.150
1.6375	-10.788	-0.135
1.638	-10.788	-0.122
1.6385	-10.788	-0.088
1.639	-10.788	-0.082
1.6395	-10.788	-0.070
1.64	-10.788	-0.055
1.6405	-10.788	-0.044
1.641	-10.788	-0.035
1.6415	-10.788	-0.046
1.642	-10.788	-0.039
1.6425	-10.788	-0.034
1.643	-10.788	-0.007
1.6435	-10.788	0.025
1.644	-10.788	0.033
1.6445	-10.788	0.022
1.645	-10.788	0.005
1.6455	-10.788	0.005
1.646	-10.788	0.020
1.6465	-10.788	0.012
1.647	-10.788	0.022
1.6475	-10.788	0.018
1.648	-10.788	0.015
1.6485	-10.788	0.000
1.649	-10.788	-0.032
1.6495	-10.788	-0.051
1.65	-10.788	-0.065
1.6505	-10.788	-0.073
1.651	-10.788	-0.086
1.6515	-10.788	-0.088
1.652	-10.788	-0.089
1.6525	-10.788	-0.081
1.653	-10.788	-0.041
1.6535	-10.788	-0.034
1.654	-10.788	-0.037
1.6545	-10.788	-0.049
1.655	-10.788	-0.045
1.6555	-10.786	-0.022
1.656	-10.786	-0.021
1.6565	-10.786	-0.008
1.657	-10.786	-0.025
1.6575	-10.786	-0.010
1.658	-10.786	-0.028
1.6585	-10.786	-0.026
1.659	-10.786	-0.009
1.6595	-10.786	0.015
1.66	-10.786	0.023
1.6605	-10.786	0.020
1.661	-10.786	0.018
1.6615	-10.786	-0.015
1.662	-10.786	-0.022
1.6625	-10.786	0.011
1.663	-10.786	0.028
1.6635	-10.786	0.033
1.664	-10.786	0.038
1.6645	-10.786	0.028
1.665	-10.786	-0.001
1.6655	-10.786	-0.018
1.666	-10.786	-0.051
1.6665	-10.786	-0.076
1.667	-10.786	-0.087
1.6675	-10.786	-0.067
1.668	-10.786	-0.061
1.6685	-10.786	-0.069
1.669	-10.786	-0.058
1.6695	-10.786	-0.055
1.67	-10.786	-0.026
1.6705	-10.786	-0.040
1.671	-10.786	-0.042
1.6715	-10.786	-0.048
1.672	-10.786	-0.067
1.6725	-10.786	-0.057
1.673	-10.786	-0.040
1.6735	-10.786	-0.003
1.674	-10.786	0.027
1.6745	-10.786	0.040
1.675	-10.786	0.035
1.6755	-10.786	0.026
1.676	-10.786	0.042
1.6765	-10.786	0.027
1.677	-10.786	0.024
1.6775	-10.786	0.002
1.678	-10.786	-0.032
1.6785	-10.786	-0.041
1.679	-10.786	-0.029
1.6795	-10.786	-0.016
1.68	-10.786	-0.045
1.6805	-10.786	-0.020
1.681	-10.786	-0.015
1.6815	-10.786	-0.019
1.682	-10.786	-0.009
1.6825	-10.786	-0.024
1.683	-10.786	-0.034
1.6835	-10.786	-0.023
1.684	-10.786	0.003
1.6845	-10.786	0.021
1.685	-10.786	0.031
1.6855	-10.786	0.042
1.686	-10.786	0.035
1.6865	-10.786	0.043
1.687	-10.786	0.051
1.6875	-10.786	0.005
1.688	-10.786	-0.022
1.6885	-10.786	-0.035
1.689	-10.786	-0.031
1.6895	-10.786	-0.017
1.69	-10.786	-0.020
1.6905	-10.786	-0.037
1.691	-10.786	-0.037
1.6915	-10.786	-0.042
1.692	-10.786	-0.036
1.6925	-10.786	-0.012
1.693	-10.786	0.003
1.6935	-10.786	0.009
1.694	-10.786	0.052
1.6945	-10.786	0.069
1.695	-10.786	0.062
1.6955	-10.786	0.083
1.696	-10.786	0.106
1.6965	-10.786	0.095
1.697	-10.786	0.057
1.6975	-10.786	0.058
1.698	-10.786	0.045
1.6985	-10.786	0.030
1.699	-10.784	-0.014
1.6995	-10.784	-0.039
1.7	-10.784	-0.045
1.7005	-10.784	-0.051
1.701	-10.784	-0.052
1.7015	-10.784	-0.073
1.702	-10.784	-0.092
1.7025	-10.784	-0.102
1.703	-10.784	-0.099
1.7035	-10.784	-0.087
1.704	-10.784	-0.098
1.7045	-10.784	-0.113
1.705	-10.784	-0.108
1.7055	-10.784	-0.085
1.706	-10.784	-0.071
1.7065	-10.784	-0.051
1.707	-10.784	-0.035
1.7075	-10.784	-0.016
1.708	-10.784	-0.023
1.7085	-10.784	0.008
1.709	-10.784	0.049
1.7095	-10.784	0.057
1.71	-10.784	0.076
1.7105	-10.784	0.064
1.711	-10.784	0.062
1.7115	-10.784	0.043
1.712	-10.784	0.028
1.7125	-10.784	0.039
1.713	-10.784	0.058
1.7135	-10.784	0.074
1.714	-10.784	0.086
1.7145	-10.784	0.103
1.715	-10.784	0.093
1.7155	-10.784	0.067
1.716	-10.784	0.049
1.7165	-10.784	0.047
1.717	-10.784	0.052
1.7175	-10.784	0.026
1.718	-10.784	0.020
1.7185	-10.784	-0.006
1.719	-10.784	-0.021
1.7195	-10.784	-0.050
1.72	-10.784	-0.061
1.7205	-10.784	-0.066
1.721	-10.784	-0.094
1.7215	-10.784	-0.080
1.722	-10.784	-0.062
1.7225	-10.784	-0.055
1.723	-10.784	-0.041
1.7235	-10.784	-0.041
1.724	-10.783	-0.045
1.7245	-10.783	-0.072
1.725	-10.783	-0.074
1.7255	-10.783	-0.089
1.726	-10.783	-0.077
1.7265	-10.783	-0.071
1.727	-10.783	-0.087
1.7275	-10.783	-0.084
1.728	-10.783	-0.097
1.7285	-10.783	-0.122
1.729	-10.783	-0.128
1.7295	-10.783	-0.133
1.73	-10.783	-0.132
1.7305	-10.783	-0.135
1.731	-10.783	-0.145
1.7315	-10.783	-0.144
1.732	-10.783	-0.124
1.7325	-10.783	-0.126
1.733	-10.783	-0.110
1.7335	-10.783	-0.079
1.734	-10.783	-0.063
1.7345	-10.783	-0.079
1.735	-10.783	-0.088
1.7355	-10.783	-0.120
1.736	-10.783	-0.115
1.7365	-10.783	-0.089
1.737	-10.783	-0.063
1.7375	-10.783	-0.063
1.738	-10.783	-0.074
1.7385	-10.783	-0.054
1.739	-10.783	-0.017
1.7395	-10.783	0.028
1.74	-10.783	0.050
1.7405	-10.783	0.080
1.741	-10.783	0.104
1.7415	-10.783	0.077
1.742	-10.783	0.074
1.7425	-10.783	0.038
1.743	-10.781	0.008
1.7435	-10.781	0.001
1.744	-10.781	-0.005
1.7445	-10.781	-0.004
1.745	-10.781	-0.023
1.7455	-10.781	0.001
1.746	-10.781	0.004
1.7465	-10.781	0.005
1.747	-10.781	-0.015
1.7475	-10.781	-0.014
1.748	-10.781	-0.020
1.7485	-10.781	-0.015
1.749	-10.781	-0.010
1.7495	-10.781	-0.025
1.75	-10.781	0.002
1.7505	-10.781	0.010
1.751	-10.781	-0.021
1.7515	-10.781	-0.050
1.752	-10.781	-0.080
1.7525	-10.781	-0.084
1.753	-10.781	-0.093
1.7535	-10.781	-0.079
1.754	-10.781	-0.053
1.7545	-10.781	-0.048
1.755	-10.781	-0.038
1.7555	-10.781	-0.026
1.756	-10.781	-0.031
1.7565	-10.781	-0.016
1.757	-10.781	-0.034
1.7575	-10.781	-0.014
1.758	-10.780	-0.006
1.7585	-10.780	-0.006
1.759	-10.780	0.034
1.7595	-10.780	0.059
1.76	-10.780	0.098
1.7605	-10.780	0.080
1.761	-10.780	0.048
1.7615	-10.780	0.010
1.762	-10.780	0.025
1.7625	-10.780	0.083
1.763	-10.780	0.075
1.7635	-10.780	0.069
1.764	-10.780	0.055
1.7645	-10.780	0.029
1.765	-10.780	-0.011
1.7655	-10.780	-0.042
1.766	-10.780	-0.076
1.7665	-10.780	-0.091
1.767	-10.780	-0.100
1.7675	-10.780	-0.091
1.768	-10.780	-0.094
1.7685	-10.780	-0.115
1.769	-10.780	-0.101
1.7695	-10.780	-0.085
1.77	-10.780	-0.062
1.7705	-10.780	-0.048
1.771	-10.778	-0.059
1.7715	-10.778	-0.044
1.772	-10.778	0.003
1.7725	-10.778	0.056
1.773	-10.778	0.089
1.7735	-10.778	0.123
1.774	-10.778	0.150
1.7745	-10.778	0.150
1.775	-10.778	0.169
1.7755	-10.778	0.199
1.776	-10.778	0.213
1.7765	-10.778	0.224
1.777	-10.778	0.215
1.7775	-10.778	0.152
1.778	-10.778	0.080
1.7785	-10.778	0.027
1.779	-10.778	0.015
1.7795	-10.778	0.045
1.78	-10.778	0.033
1.7805	-10.778	0.013
1.781	-10.778	-0.012
1.7815	-10.778	-0.037
1.782	-10.777	-0.051
1.7825	-10.777	-0.053
1.783	-10.777	0.004
1.7835	-10.777	0.019
1.784	-10.777	0.008
1.7845	-10.777	-0.026
1.785	-10.777	-0.014
1.7855	-10.777	-0.003
1.786	-10.777	-0.026
1.7865	-10.777	-0.008
1.787	-10.777	-0.017
1.7875	-10.777	-0.017
1.788	-10.777	-0.026
1.7885	-10.777	-0.030
1.789	-10.777	-0.032
1.7895	-10.777	-0.034
1.79	-10.777	-0.037
1.7905	-10.777	-0.020
1.791	-10.777	0.016
1.7915	-10.777	0.056
1.792	-10.775	0.065
1.7925	-10.775	0.073
1.793	-10.775	0.068
1.7935	-10.775	0.048
1.794	-10.775	0.052
1.7945	-10.775	0.081
1.795	-10.775	0.080
1.7955	-10.775	0.084
1.796	-10.775	0.073
1.7965	-10.775	0.032
1.797	-10.775	-0.008
1.7975	-10.775	-0.025
1.798	-10.775	-0.046
1.7985	-10.775	-0.045
1.799	-10.775	-0.027
1.7995	-10.775	0.000
1.8	-10.775	0.035
1.8005	-10.775	0.066
1.801	-10.775	0.082
1.8015	-10.773	0.125
1.802	-10.773	0.172
1.8025	-10.773	0.173
1.803	-10.773	0.155
1.8035	-10.773	0.159
1.804	-10.773	0.162
1.8045	-10.773	0.174
1.805	-10.773	0.179
1.8055	-10.773	0.164
1.806	-10.773	0.138
1.8065	-10.773	0.078
1.807	-10.773	0.051
1.8075	-10.773	0.042
1.808	-10.773	0.017
1.8085	-10.773	-0.029
1.809	-10.773	-0.074
1.8095	-10.772	-0.146
1.81	-10.772	-0.229
1.8105	-10.772	-0.282
1.811	-10.772	-0.313
1.8115	-10.772	-0.352
1.812	-10.772	-0.385
1.8125	-10.772	-0.387
1.813	-10.772	-0.393
1.8135	-10.772	-0.407
1.814	-10.772	-0.391
1.8145	-10.772	-0.396
1.815	-10.772	-0.385
1.8155	-10.772	-0.368
1.816	-10.772	-0.357
1.8165	-10.772	-0.324
1.817	-10.772	-0.284
1.8175	-10.770	-0.283
1.818	-10.770	-0.297
1.8185	-10.770	-0.293
1.819	-10.770	-0.277
1.8195	-10.770	-0.246
1.82	-10.770	-0.208
1.8205	-10.770	-0.200
1.821	-10.770	-0.200
1.8215	-10.770	-0.181
1.822	-10.770	-0.161
1.8225	-10.770	-0.158
1.823	-10.770	-0.125
1.8235	-10.770	-0.088
1.824	-10.770	-0.031
1.8245	-10.769	-0.021
1.825	-10.769	-0.010
1.8255	-10.769	0.005
1.826	-10.769	0.029
1.8265	-10.769	0.047
1.827	-10.769	0.047
1.8275	-10.769	0.076
1.828	-10.769	0.070
1.8285	-10.769	0.074
1.829	-10.769	0.075
1.8295	-10.769	0.072
1.83	-10.769	0.069
1.8305	-10.769	0.050
1.831	-10.769	0.051
1.8315	-10.767	0.008
1.832	-10.767	-0.012
1.8325	-10.767	-0.050
1.833	-10.767	-0.048
1.8335	-10.767	-0.037
1.834	-10.767	-0.046
1.8345	-10.767	-0.084
1.835	-10.767	-0.108
1.8355	-10.767	-0.108
1.836	-10.767	-0.113
1.8365	-10.767	-0.105
1.837	-10.767	-0.095
1.8375	-10.766	-0.107
1.838	-10.766	-0.084
1.8385	-10.766	-0.051
1.839	-10.766	0.008
1.8395	-10.766	0.053
1.84	-10.766	0.095
1.8405	-10.766	0.108
1.841	-10.766	0.106
1.8415	-10.766	0.105
1.842	-10.766	0.141
1.8425	-10.766	0.166
1.843	-10.766	0.201
1.8435	-10.766	0.227
1.844	-10.764	0.208
1.8445	-10.764	0.189
1.845	-10.764	0.152
1.8455	-10.764	0.144
1.846	-10.764	0.147
1.8465	-10.764	0.130
1.847	-10.764	0.105
1.8475	-10.764	0.063
1.848	-10.764	0.026
1.8485	-10.764	-0.007
1.849	-10.764	-0.037
1.8495	-10.763	-0.072
1.85	-10.763	-0.085
1.8505	-10.763	-0.092
1.851	-10.763	-0.094
1.8515	-10.763	-0.081
1.852	-10.763	-0.090
1.8525	-10.763	-0.103
1.853	-10.763	-0.090
1.8535	-10.763	-0.072
1.854	-10.763	-0.048
1.8545	-10.763	-0.029
1.855	-10.761	0.009
1.8555	-10.761	0.018
1.856	-10.761	0.031
1.8565	-10.761	0.041
1.857	-10.761	0.065
1.8575	-10.761	0.073
1.858	-10.761	0.033
1.8585	-10.761	0.030
1.859	-10.761	0.035
1.8595	-10.761	0.031
1.86	-10.761	0.021
1.8605	-10.759	0.006
1.861	-10.759	0.024
1.8615	-10.759	0.035
1.862	-10.759	0.062
1.8625	-10.759	0.076
1.863	-10.759	0.068
1.8635	-10.759	0.050
1.864	-10.759	0.020
1.8645	-10.759	0.020
1.865	-10.759	-0.022
1.8655	-10.758	-0.052
1.866	-10.758	-0.083
1.8665	-10.758	-0.100
1.867	-10.758	-0.115
1.8675	-10.758	-0.117
1.868	-10.758	-0.151
1.8685	-10.758	-0.152
1.869	-10.758	-0.128
1.8695	-10.758	-0.107
1.87	-10.758	-0.098
1.8705	-10.756	-0.092
1.871	-10.756	-0.113
1.8715	-10.756	-0.134
1.872	-10.756	-0.102
1.8725	-10.756	-0.078
1.873	-10.756	-0.073
1.8735	-10.756	-0.064
1.874	-10.756	0.014
1.8745	-10.756	0.037
1.875	-10.755	-0.001
1.8755	-10.755	0.036
1.876	-10.755	0.069
1.8765	-10.755	0.097
1.877	-10.755	0.139
1.8775	-10.755	0.170
1.878	-10.755	0.164
1.8785	-10.755	0.129
1.879	-10.755	0.154
1.8795	-10.753	0.162
1.88	-10.753	0.133
1.8805	-10.753	0.097
1.881	-10.753	0.053
1.8815	-10.753	-0.003
1.882	-10.753	-0.052
1.8825	-10.753	-0.098
1.883	-10.753	-0.131
1.8835	-10.753	-0.123
1.884	-10.752	-0.122
1.8845	-10.752	-0.147
1.885	-10.752	-0.197
1.8855	-10.752	-0.215
1.886	-10.752	-0.227
1.8865	-10.752	-0.209
1.887	-10.752	-0.205
1.8875	-10.752	-0.201
1.888	-10.750	-0.164
1.8885	-10.750	-0.132
1.889	-10.750	-0.141
1.8895	-10.750	-0.149
1.89	-10.750	-0.113
1.8905	-10.750	-0.076
1.891	-10.750	-0.035
1.8915	-10.750	-0.014
1.892	-10.750	-0.002
1.8925	-10.748	0.012
1.893	-10.748	0.035
1.8935	-10.748	0.044
1.894	-10.748	0.068
1.8945	-10.748	0.105
1.895	-10.748	0.095
1.8955	-10.748	0.110
1.896	-10.748	0.152
1.8965	-10.747	0.177
1.897	-10.747	0.217
1.8975	-10.747	0.231
1.898	-10.747	0.223
1.8985	-10.747	0.191
1.899	-10.747	0.132
1.8995	-10.747	0.096
1.9	-10.747	0.099
1.9005	-10.745	0.114
1.901	-10.745	0.110
1.9015	-10.745	0.085
1.902	-10.745	-0.002
1.9025	-10.745	-0.089
1.903	-10.745	-0.097
1.9035	-10.745	-0.080
1.904	-10.744	-0.104
1.9045	-10.744	-0.147
1.905	-10.744	-0.145
1.9055	-10.744	-0.136
1.906	-10.744	-0.115
1.9065	-10.744	-0.040
1.907	-10.744	0.013
1.9075	-10.744	0.057
1.908	-10.742	0.052
1.9085	-10.742	0.044
1.909	-10.742	0.052
1.9095	-10.742	0.047
1.91	-10.742	0.049
1.9105	-10.742	0.048
1.911	-10.742	0.042
1.9115	-10.741	0.021
1.912	-10.741	0.026
1.9125	-10.741	0.040
1.913	-10.741	0.044
1.9135	-10.741	0.037
1.914	-10.741	0.031
1.9145	-10.741	0.053
1.915	-10.739	0.074
1.9155	-10.739	0.068
1.916	-10.739	0.045
1.9165	-10.739	0.057
1.917	-10.739	0.054
1.9175	-10.739	0.057
1.918	-10.739	0.035
1.9185	-10.738	0.009
1.919	-10.738	-0.007
1.9195	-10.738	-0.016
1.92	-10.738	0.045
1.9205	-10.738	0.113
1.921	-10.738	0.125
1.9215	-10.738	0.128
1.922	-10.736	0.160
1.9225	-10.736	0.177
1.923	-10.736	0.110
1.9235	-10.736	0.095
1.924	-10.736	0.093
1.9245	-10.736	0.072
1.925	-10.734	0.049
1.9255	-10.734	0.062
1.926	-10.734	0.040
1.9265	-10.734	-0.003
1.927	-10.734	-0.070
1.9275	-10.734	-0.145
1.928	-10.734	-0.207
1.9285	-10.733	-0.223
1.929	-10.733	-0.195
1.9295	-10.733	-0.176
1.93	-10.733	-0.183
1.9305	-10.733	-0.197
1.931	-10.733	-0.208
1.9315	-10.731	-0.245
1.932	-10.731	-0.286
1.9325	-10.731	-0.336
1.933	-10.731	-0.346
1.9335	-10.731	-0.320
1.934	-10.731	-0.318
1.9345	-10.730	-0.323
1.935	-10.730	-0.332
1.9355	-10.730	-0.363
1.936	-10.730	-0.384
1.9365	-10.730	-0.356
1.937	-10.730	-0.297
1.9375	-10.728	-0.248
1.938	-10.728	-0.189
1.9385	-10.728	-0.130
1.939	-10.728	-0.072
1.9395	-10.728	-0.064
1.94	-10.728	-0.073
1.9405	-10.727	-0.059
1.941	-10.727	-0.044
1.9415	-10.727	-0.066
1.942	-10.727	-0.082
1.9425	-10.727	-0.086
1.943	-10.727	-0.087
1.9435	-10.725	-0.114
1.944	-10.725	-0.090
1.9445	-10.725	-0.074
1.945	-10.725	-0.087
1.9455	-10.725	-0.087
1.946	-10.725	-0.077
1.9465	-10.723	-0.076
1.947	-10.723	-0.098
1.9475	-10.723	-0.077
1.948	-10.723	-0.055
1.9485	-10.723	-0.029
1.949	-10.723	-0.025
1.9495	-10.722	-0.010
1.95	-10.722	-0.001
1.9505	-10.722	0.007
1.951	-10.722	0.019
1.9515	-10.722	0.013
1.952	-10.720	0.002
1.9525	-10.720	-0.010
1.953	-10.720	-0.021
1.9535	-10.720	-0.039
1.954	-10.720	-0.046
1.9545	-10.720	-0.033
1.955	-10.719	-0.029
1.9555	-10.719	-0.026
1.956	-10.719	-0.018
1.9565	-10.719	-0.023
1.957	-10.719	-0.037
1.9575	-10.717	-0.017
1.958	-10.717	-0.025
1.9585	-10.717	-0.033
1.959	-10.717	-0.028
1.9595	-10.717	-0.022
1.96	-10.717	-0.016
1.9605	-10.716	-0.013
1.961	-10.716	0.028
1.9615	-10.716	0.036
1.962	-10.716	0.058
1.9625	-10.716	0.077
1.963	-10.714	0.132
1.9635	-10.714	0.195
1.964	-10.714	0.206
1.9645	-10.714	0.222
1.965	-10.714	0.225
1.9655	-10.713	0.225
1.966	-10.713	0.228
1.9665	-10.713	0.246
1.967	-10.713	0.255
1.9675	-10.713	0.191
1.968	-10.711	0.142
1.9685	-10.711	0.080
1.969	-10.711	0.058
1.9695	-10.711	0.047
1.97	-10.711	0.049
1.9705	-10.709	0.021
1.971	-10.709	-0.045
1.9715	-10.709	-0.104
1.972	-10.709	-0.135
1.9725	-10.709	-0.168
1.973	-10.708	-0.155
1.9735	-10.708	-0.133
1.974	-10.708	-0.094
1.9745	-10.708	-0.059
1.975	-10.708	-0.052
1.9755	-10.706	-0.049
1.976	-10.706	-0.028
1.9765	-10.706	0.000
1.977	-10.706	0.026
1.9775	-10.706	0.067
1.978	-10.705	0.084
1.9785	-10.705	0.094
1.979	-10.705	0.175
1.9795	-10.705	0.245
1.98	-10.705	0.273
1.9805	-10.703	0.234
1.981	-10.703	0.193
1.9815	-10.703	0.143
1.982	-10.703	0.101
1.9825	-10.703	0.060
1.983	-10.702	0.012
1.9835	-10.702	-0.037
1.984	-10.702	-0.068
1.9845	-10.702	-0.096
1.985	-10.700	-0.126
1.9855	-10.700	-0.177
1.986	-10.700	-0.204
1.9865	-10.700	-0.192
1.987	-10.700	-0.170
1.9875	-10.698	-0.176
1.988	-10.698	-0.207
1.9885	-10.698	-0.204
1.989	-10.698	-0.188
1.9895	-10.697	-0.151
1.99	-10.697	-0.094
1.9905	-10.697	-0.046
1.991	-10.697	0.013
1.9915	-10.697	0.041
1.992	-10.695	0.044
1.9925	-10.695	0.028
1.993	-10.695	0.038
1.9935	-10.695	0.068
1.994	-10.694	0.066
1.9945	-10.694	0.051
1.995	-10.694	-0.002
1.9955	-10.694	-0.017
1.996	-10.694	-0.005
1.9965	-10.692	-0.007
1.997	-10.692	-0.050
1.9975	-10.692	-0.098
1.998	-10.692	-0.157
1.9985	-10.691	-0.197
1.999	-10.691	-0.234
1.9995	-10.691	-0.258
2.0	-10.691	-0.262
2.0005	-10.691	-0.262
2.001	-10.689	-0.245
2.0015	-10.689	-0.230
2.002	-10.689	-0.213
2.0025	-10.689	-0.141
2.003	-10.688	-0.075
2.0035	-10.688	-0.066
2.004	-10.688	-0.065
2.0045	-10.688	-0.102
2.005	-10.686	-0.117
2.0055	-10.686	-0.130
2.006	-10.686	-0.124
2.0065	-10.686	-0.068
2.007	-10.684	-0.045
2.0075	-10.684	-0.047
2.008	-10.684	-0.049
2.0085	-10.684	-0.010
2.009	-10.683	0.065
2.0095	-10.683	0.112
2.01	-10.683	0.170
2.0105	-10.683	0.211
2.011	-10.683	0.174
2.0115	-10.681	0.107
2.012	-10.681	0.044
2.0125	-10.681	0.041
2.013	-10.681	0.032
2.0135	-10.680	-0.008
2.014	-10.680	-0.024
2.0145	-10.680	-0.031
2.015	-10.680	-0.040
2.0155	-10.678	-0.066
2.016	-10.678	-0.085
2.0165	-10.678	-0.079
2.017	-10.678	-0.066
2.0175	-10.677	-0.058
2.018	-10.677	-0.049
2.0185	-10.677	-0.023
2.019	-10.677	0.010
2.0195	-10.675	0.020
2.02	-10.675	0.033
2.0205	-10.675	0.057
2.021	-10.675	0.067
2.0215	-10.673	0.065
2.022	-10.673	0.096
2.0225	-10.673	0.121
2.023	-10.673	0.127
2.0235	-10.672	0.116
2.024	-10.672	0.118
2.0245	-10.672	0.127
2.025	-10.670	0.115
2.0255	-10.670	0.109
2.026	-10.670	0.058
2.0265	-10.670	0.011
2.027	-10.669	-0.013
2.0275	-10.669	-0.022
2.028	-10.669	-0.010
2.0285	-10.669	-0.039
2.029	-10.667	-0.090
2.0295	-10.667	-0.101
2.03	-10.667	-0.121
2.0305	-10.667	-0.109
2.031	-10.666	-0.114
2.0315	-10.666	-0.152
2.032	-10.666	-0.156
2.0325	-10.666	-0.165
2.033	-10.664	-0.141
2.0335	-10.664	-0.137
2.034	-10.664	-0.109
2.0345	-10.663	-0.080
2.035	-10.663	-0.062
2.0355	-10.663	-0.055
2.036	-10.663	-0.053
2.0365	-10.661	0.020
2.037	-10.661	0.046
2.0375	-10.661	0.059
2.038	-10.661	0.076
2.0385	-10.659	0.109
2.039	-10.659	0.137
2.0395	-10.659	0.141
2.04	-10.658	0.141
2.0405	-10.658	0.138
2.041	-10.658	0.121
2.0415	-10.658	0.062
2.042	-10.656	0.048
2.0425	-10.656	0.014
2.043	-10.656	-0.025
2.0435	-10.655	-0.055
2.044	-10.655	-0.043
2.0445	-10.655	-0.050
2.045	-10.655	-0.092
2.0455	-10.653	-0.135
2.046	-10.653	-0.135
2.0465	-10.653	-0.097
2.047	-10.652	-0.049
2.0475	-10.652	-0.004
2.048	-10.652	-0.027
2.0485	-10.652	-0.063
2.049	-10.650	-0.073
2.0495	-10.650	-0.044
2.05	-10.650	-0.006
2.0505	-10.648	0.013
2.051	-10.648	0.041
2.0515	-10.648	0.035
2.052	-10.648	0.016
2.0525	-10.647	0.020
2.053	-10.647	0.034
2.0535	-10.647	0.073
2.054	-10.645	0.079
2.0545	-10.645	0.081
2.055	-10.645	0.094
2.0555	-10.645	0.082
2.056	-10.644	0.060
2.0565	-10.644	0.021
2.057	-10.644	0.001
2.0575	-10.642	-0.064
2.058	-10.642	-0.154
2.0585	-10.642	-0.221
2.059	-10.642	-0.215
2.0595	-10.641	-0.191
2.06	-10.641	-0.171
2.0605	-10.641	-0.171
2.061	-10.639	-0.192
2.0615	-10.639	-0.213
2.062	-10.639	-0.236
2.0625	-10.638	-0.214
2.063	-10.638	-0.171
2.0635	-10.638	-0.133
2.064	-10.636	-0.117
2.0645	-10.636	-0.116
2.065	-10.636	-0.136
2.0655	-10.636	-0.160
2.066	-10.634	-0.180
2.0665	-10.634	-0.142
2.067	-10.634	-0.094
2.0675	-10.633	-0.054
2.068	-10.633	0.056
2.0685	-10.633	0.217
2.069	-10.631	0.353
2.0695	-10.631	0.427
2.07	-10.631	0.470
2.0705	-10.631	0.439
2.071	-10.630	0.402
2.0715	-10.630	0.380
2.072	-10.630	0.382
2.0725	-10.628	0.355
2.073	-10.628	0.303
2.0735	-10.628	0.261
2.074	-10.627	0.235
2.0745	-10.627	0.144
2.075	-10.627	0.058
2.0755	-10.625	0.011
2.076	-10.625	-0.036
2.0765	-10.625	-0.081
2.077	-10.623	-0.108
2.0775	-10.623	-0.133
2.078	-10.623	-0.228
2.0785	-10.622	-0.310
2.079	-10.622	-0.345
2.0795	-10.622	-0.387
2.08	-10.622	-0.435
2.0805	-10.620	-0.462
2.081	-10.620	-0.457
2.0815	-10.620	-0.448
2.082	-10.619	-0.434
2.0825	-10.619	-0.418
2.083	-10.619	-0.382
2.0835	-10.617	-0.370
2.084	-10.617	-0.375
2.0845	-10.617	-0.359
2.085	-10.616	-0.330
2.0855	-10.616	-0.278
2.086	-10.616	-0.242
2.0865	-10.614	-0.198
2.087	-10.614	-0.167
2.0875	-10.614	-0.164
2.088	-10.613	-0.149
2.0885	-10.613	-0.122
2.089	-10.613	-0.111
2.0895	-10.611	-0.086
2.09	-10.611	-0.070
2.0905	-10.611	-0.066
2.091	-10.609	-0.050
2.0915	-10.609	-0.043
2.092	-10.609	-0.017
2.0925	-10.608	0.024
2.093	-10.608	0.055
2.0935	-10.608	0.076
2.094	-10.606	0.079
2.0945	-10.606	0.087
2.095	-10.606	0.063
2.0955	-10.605	0.088
2.096	-10.605	0.089
2.0965	-10.605	0.084
2.097	-10.603	0.090
2.0975	-10.603	0.092
2.098	-10.603	0.128
2.0985	-10.602	0.148
2.099	-10.602	0.158
2.0995	-10.602	0.155
2.1	-10.600	0.145
2.1005	-10.600	0.124
2.101	-10.600	0.104
2.1015	-10.598	0.092
2.102	-10.598	0.030
2.1025	-10.598	-0.028
2.103	-10.597	-0.036
2.1035	-10.597	-0.026
2.104	-10.595	-0.035
2.1045	-10.595	-0.054
2.105	-10.595	-0.019
2.1055	-10.594	-0.004
2.106	-10.594	-0.015
2.1065	-10.594	0.011
2.107	-10.592	0.040
2.1075	-10.592	0.045
2.108	-10.592	0.029
2.1085	-10.591	0.016
2.109	-10.591	0.039
2.1095	-10.591	0.071
2.11	-10.589	0.102
2.1105	-10.589	0.114
2.111	-10.589	0.118
2.1115	-10.588	0.094
2.112	-10.588	0.066
2.1125	-10.588	0.040
2.113	-10.586	0.038
2.1135	-10.586	0.061
2.114	-10.584	0.089
2.1145	-10.584	0.089
2.115	-10.584	0.060
2.1155	-10.583	0.009
2.116	-10.583	-0.038
2.1165	-10.583	-0.061
2.117	-10.581	-0.094
2.1175	-10.581	-0.119
2.118	-10.581	-0.144
2.1185	-10.580	-0.127
2.119	-10.580	-0.111
2.1195	-10.580	-0.094
2.12	-10.578	-0.071
2.1205	-10.578	-0.036
2.121	-10.577	-0.033
2.1215	-10.577	-0.009
2.122	-10.577	0.069
2.1225	-10.575	0.078
2.123	-10.575	0.090
2.1235	-10.575	0.093
2.124	-10.573	0.112
2.1245	-10.573	0.138
2.125	-10.573	0.109
2.1255	-10.572	0.087
2.126	-10.572	0.068
2.1265	-10.570	0.061
2.127	-10.570	0.053
2.1275	-10.570	0.054
2.128	-10.569	0.057
2.1285	-10.569	0.038
2.129	-10.569	0.029
2.1295	-10.567	0.036
2.13	-10.567	0.054
2.1305	-10.566	0.044
2.131	-10.566	0.012
2.1315	-10.566	-0.037
2.132	-10.564	-0.082
2.1325	-10.564	-0.120
2.133	-10.564	-0.096
2.1335	-10.563	-0.090
2.134	-10.563	-0.048
2.1345	-10.561	-0.019
2.135	-10.561	-0.035
2.1355	-10.561	-0.073
2.136	-10.559	-0.105
2.1365	-10.559	-0.111
2.137	-10.559	-0.117
2.1375	-10.558	-0.120
2.138	-10.558	-0.147
2.1385	-10.556	-0.174
2.139	-10.556	-0.170
2.1395	-10.556	-0.209
2.14	-10.555	-0.269
2.1405	-10.555	-0.286
2.141	-10.555	-0.281
2.1415	-10.553	-0.271
2.142	-10.553	-0.241
2.1425	-10.552	-0.146
2.143	-10.552	-0.061
2.1435	-10.552	0.035
2.144	-10.550	0.085
2.1445	-10.550	0.101
2.145	-10.548	0.082
2.1455	-10.548	0.064
2.146	-10.548	0.109
2.1465	-10.547	0.145
2.147	-10.547	0.144
2.1475	-10.547	0.148
2.148	-10.545	0.165
2.1485	-10.545	0.195
2.149	-10.544	0.195
2.1495	-10.544	0.185
2.15	-10.544	0.144
2.1505	-10.542	0.114
2.151	-10.542	0.079
2.1515	-10.541	0.060
2.152	-10.541	0.031
2.1525	-10.541	0.003
2.153	-10.539	-0.019
2.1535	-10.539	-0.032
2.154	-10.539	-0.059
2.1545	-10.538	-0.097
2.155	-10.538	-0.125
2.1555	-10.536	-0.121
2.156	-10.536	-0.125
2.1565	-10.536	-0.165
2.157	-10.534	-0.231
2.1575	-10.534	-0.243
2.158	-10.533	-0.232
2.1585	-10.533	-0.208
2.159	-10.533	-0.176
2.1595	-10.531	-0.108
2.16	-10.531	-0.044
2.1605	-10.530	0.016
2.161	-10.530	0.044
2.1615	-10.530	0.018
2.162	-10.528	-0.019
2.1625	-10.528	-0.054
2.163	-10.527	-0.038
2.1635	-10.527	-0.024
2.164	-10.527	-0.047
2.1645	-10.525	-0.047
2.165	-10.525	-0.040
2.1655	-10.523	-0.029
2.166	-10.523	-0.058
2.1665	-10.523	-0.044
2.167	-10.522	-0.019
2.1675	-10.522	0.003
2.168	-10.520	-0.007
2.1685	-10.520	-0.028
2.169	-10.520	-0.024
2.1695	-10.519	-0.035
2.17	-10.519	0.009
2.1705	-10.517	0.042
2.171	-10.517	0.031
2.1715	-10.517	0.020
2.172	-10.516	0.000
2.1725	-10.516	-0.026
2.173	-10.514	-0.029
2.1735	-10.514	-0.012
2.174	-10.514	-0.007
2.1745	-10.513	-0.007
2.175	-10.513	0.008
2.1755	-10.511	0.033
2.176	-10.511	0.075
2.1765	-10.511	0.084
2.177	-10.509	0.089
2.1775	-10.509	0.101
2.178	-10.508	0.063
2.1785	-10.508	0.023
2.179	-10.508	0.015
2.1795	-10.506	-0.012
2.18	-10.506	-0.055
2.1805	-10.505	-0.080
2.181	-10.505	-0.071
2.1815	-10.505	-0.061
2.182	-10.503	-0.033
2.1825	-10.503	-0.057
2.183	-10.502	-0.069
2.1835	-10.502	-0.072
2.184	-10.500	-0.094
2.1845	-10.500	-0.110
2.185	-10.500	-0.129
2.1855	-10.498	-0.121
2.186	-10.498	-0.098
2.1865	-10.497	-0.091
2.187	-10.497	-0.079
2.1875	-10.497	-0.093
2.188	-10.495	-0.097
2.1885	-10.495	-0.084
2.189	-10.494	-0.041
2.1895	-10.494	0.002
2.19	-10.494	0.023
2.1905	-10.492	0.061
2.191	-10.492	0.064
2.1915	-10.491	0.054
2.192	-10.491	0.037
2.1925	-10.489	0.045
2.193	-10.489	0.056
2.1935	-10.489	0.075
2.194	-10.488	0.081
2.1945	-10.488	0.049
2.195	-10.486	-0.016
2.1955	-10.486	-0.044
2.196	-10.486	-0.052
2.1965	-10.484	-0.046
2.197	-10.484	-0.057
2.1975	-10.483	-0.067
2.198	-10.483	-0.133
2.1985	-10.483	-0.189
2.199	-10.481	-0.226
2.1995	-10.481	-0.236
2.2	-10.480	-0.236
2.2005	-10.480	-0.226
2.201	-10.478	-0.177
2.2015	-10.478	-0.120
2.202	-10.478	-0.057
2.2025	-10.477	-0.039
2.203	-10.477	-0.035
2.2035	-10.475	-0.032
2.204	-10.475	-0.031
2.2045	-10.475	-0.035
2.205	-10.473	-0.012
2.2055	-10.473	0.012
2.206	-10.472	0.031
2.2065	-10.472	0.041
2.207	-10.470	0.075
2.2075	-10.470	0.120
2.208	-10.470	0.123
2.2085	-10.469	0.143
2.209	-10.469	0.181
2.2095	-10.467	0.212
2.21	-10.467	0.248
2.2105	-10.467	0.234
2.211	-10.466	0.195
2.2115	-10.466	0.127
2.212	-10.464	0.090
2.2125	-10.464	0.062
2.213	-10.463	0.024
2.2135	-10.463	-0.008
2.214	-10.463	-0.075
2.2145	-10.461	-0.097
2.215	-10.461	-0.162
2.2155	-10.459	-0.227
2.216	-10.459	-0.255
2.2165	-10.458	-0.228
2.217	-10.458	-0.210
2.2175	-10.458	-0.176
2.218	-10.456	-0.060
2.2185	-10.456	-0.006
2.219	-10.455	0.016
2.2195	-10.455	0.022
2.22	-10.455	0.079
2.2205	-10.453	0.122
2.221	-10.453	0.125
2.2215	-10.452	0.151
2.222	-10.452	0.165
2.2225	-10.450	0.191
2.223	-10.450	0.238
2.2235	-10.450	0.248
2.224	-10.448	0.239
2.2245	-10.448	0.217
2.225	-10.447	0.203
2.2255	-10.447	0.194
2.226	-10.445	0.187
2.2265	-10.445	0.138
2.227	-10.445	0.066
2.2275	-10.444	-0.037
2.228	-10.444	-0.113
2.2285	-10.442	-0.104
2.229	-10.442	-0.028
2.2295	-10.442	0.014
2.23	-10.441	0.002
2.2305	-10.441	-0.011
2.231	-10.439	-0.021
2.2315	-10.439	-0.020
2.232	-10.438	-0.023
2.2325	-10.438	-0.031
2.233	-10.438	-0.042
2.2335	-10.436	-0.016
2.234	-10.436	0.016
2.2345	-10.434	0.005
2.235	-10.434	-0.026
2.2355	-10.433	-0.089
2.236	-10.433	-0.092
2.2365	-10.433	-0.054
2.237	-10.431	-0.051
2.2375	-10.431	-0.058
2.238	-10.430	-0.038
2.2385	-10.430	0.026
2.239	-10.430	0.074
2.2395	-10.428	0.083
2.24	-10.428	0.048
2.2405	-10.427	0.034
2.241	-10.427	0.019
2.2415	-10.425	-0.011
2.242	-10.425	-0.022
2.2425	-10.425	-0.030
2.243	-10.423	0.010
2.2435	-10.423	0.036
2.244	-10.422	0.045
2.2445	-10.422	0.073
2.245	-10.420	0.047
2.2455	-10.420	0.044
2.246	-10.420	0.068
2.2465	-10.419	0.051
2.247	-10.419	0.022
2.2475	-10.417	-0.037
2.248	-10.417	-0.084
2.2485	-10.417	-0.133
2.249	-10.416	-0.182
2.2495	-10.416	-0.151
2.25	-10.414	-0.132
2.2505	-10.414	-0.119
2.251	-10.413	-0.121
2.2515	-10.413	-0.166
2.252	-10.413	-0.205
2.2525	-10.411	-0.252
2.253	-10.411	-0.260
2.2535	-10.409	-0.229
2.254	-10.409	-0.217
2.2545	-10.408	-0.230
2.255	-10.408	-0.263
2.2555	-10.408	-0.241
2.256	-10.406	-0.222
2.2565	-10.406	-0.207
2.257	-10.405	-0.202
2.2575	-10.405	-0.180
2.258	-10.405	-0.172
2.2585	-10.403	-0.202
2.259	-10.403	-0.191
2.2595	-10.402	-0.175
2.26	-10.402	-0.168
2.2605	-10.400	-0.176
2.261	-10.400	-0.228
2.2615	-10.400	-0.233
2.262	-10.398	-0.251
2.2625	-10.398	-0.250
2.263	-10.397	-0.241
2.2635	-10.397	-0.189
2.264	-10.397	-0.149
2.2645	-10.395	-0.125
2.265	-10.395	-0.098
2.2655	-10.394	-0.080
2.266	-10.394	-0.108
2.2665	-10.392	-0.093
2.267	-10.392	-0.063
2.2675	-10.392	-0.074
2.268	-10.391	-0.092
2.2685	-10.391	-0.096
2.269	-10.389	-0.135
2.2695	-10.389	-0.178
2.27	-10.389	-0.173
2.2705	-10.388	-0.171
2.271	-10.388	-0.144
2.2715	-10.386	-0.133
2.272	-10.386	-0.091
2.2725	-10.384	-0.048
2.273	-10.384	-0.023
2.2735	-10.384	0.015
2.274	-10.383	0.054
2.2745	-10.383	0.087
2.275	-10.381	0.112
2.2755	-10.381	0.131
2.276	-10.381	0.166
2.2765	-10.380	0.176
2.277	-10.380	0.182
2.2775	-10.378	0.184
2.278	-10.378	0.206
2.2785	-10.378	0.255
2.279	-10.377	0.287
2.2795	-10.377	0.325
2.28	-10.375	0.312
2.2805	-10.375	0.277
2.281	-10.373	0.248
2.2815	-10.373	0.255
2.282	-10.373	0.263
2.2825	-10.372	0.205
2.283	-10.372	0.165
2.2835	-10.370	0.097
2.284	-10.370	0.053
2.2845	-10.370	0.020
2.285	-10.369	0.013
2.2855	-10.369	0.026
2.286	-10.367	0.001
2.2865	-10.367	-0.002
2.287	-10.367	-0.017
2.2875	-10.366	-0.066
2.288	-10.366	-0.121
2.2885	-10.364	-0.183
2.289	-10.364	-0.166
2.2895	-10.363	-0.161
2.29	-10.363	-0.166
2.2905	-10.363	-0.164
2.291	-10.361	-0.173
2.2915	-10.361	-0.175
2.292	-10.359	-0.119
2.2925	-10.359	-0.048
2.293	-10.359	-0.054
2.2935	-10.358	-0.095
2.294	-10.358	-0.115
2.2945	-10.356	-0.102
2.295	-10.356	-0.089
2.2955	-10.356	-0.031
2.296	-10.355	0.003
2.2965	-10.355	0.023
2.297	-10.353	0.034
2.2975	-10.353	0.049
2.298	-10.353	0.043
2.2985	-10.352	0.050
2.299	-10.352	-0.000
2.2995	-10.350	-0.013
2.3	-10.350	0.030
2.3005	-10.350	0.070
2.301	-10.348	0.062
2.3015	-10.348	0.012
2.302	-10.347	-0.024
2.3025	-10.347	-0.017
2.303	-10.347	-0.015
2.3035	-10.345	0.004
2.304	-10.345	0.007
2.3045	-10.344	-0.000
2.305	-10.344	-0.032
2.3055	-10.344	-0.035
2.306	-10.342	-0.023
2.3065	-10.342	-0.046
2.307	-10.341	-0.075
2.3075	-10.341	-0.111
2.308	-10.341	-0.189
2.3085	-10.339	-0.219
2.309	-10.339	-0.226
2.3095	-10.338	-0.191
2.31	-10.338	-0.136
2.3105	-10.338	-0.115
2.311	-10.336	-0.079
2.3115	-10.336	-0.078
2.312	-10.334	-0.052
2.3125	-10.334	-0.043
2.313	-10.334	-0.040
2.3135	-10.333	-0.041
2.314	-10.333	-0.067
2.3145	-10.331	-0.087
2.315	-10.331	-0.108
2.3155	-10.331	-0.088
2.316	-10.330	-0.078
2.3165	-10.330	-0.053
2.317	-10.328	-0.009
2.3175	-10.328	0.018
2.318	-10.328	0.031
2.3185	-10.327	0.012
2.319	-10.327	0.012
2.3195	-10.327	0.031
2.32	-10.325	0.074
2.3205	-10.325	0.127
2.321	-10.323	0.162
2.3215	-10.323	0.185
2.322	-10.323	0.216
2.3225	-10.322	0.245
2.323	-10.322	0.230
2.3235	-10.320	0.186
2.324	-10.320	0.254
2.3245	-10.320	0.318
2.325	-10.319	0.295
2.3255	-10.319	0.272
2.326	-10.317	0.254
2.3265	-10.317	0.233
2.327	-10.317	0.202
2.3275	-10.316	0.247
2.328	-10.316	0.253
2.3285	-10.316	0.242
2.329	-10.314	0.212
2.3295	-10.314	0.171
2.33	-10.313	0.126
2.3305	-10.313	0.059
2.331	-10.313	-0.011
2.3315	-10.311	-0.098
2.332	-10.311	-0.167
2.3325	-10.309	-0.222
2.333	-10.309	-0.245
2.3335	-10.309	-0.257
2.334	-10.308	-0.273
2.3345	-10.308	-0.301
2.335	-10.308	-0.316
2.3355	-10.306	-0.313
2.336	-10.306	-0.305
2.3365	-10.305	-0.291
2.337	-10.305	-0.297
2.3375	-10.305	-0.306
2.338	-10.303	-0.289
2.3385	-10.303	-0.277
2.339	-10.303	-0.255
2.3395	-10.302	-0.224
2.34	-10.302	-0.164
2.3405	-10.300	-0.100
2.341	-10.300	-0.049
2.3415	-10.300	-0.020
2.342	-10.298	0.012
2.3425	-10.298	0.036
2.343	-10.298	0.073
2.3435	-10.297	0.091
2.344	-10.297	0.083
2.3445	-10.295	0.086
2.345	-10.295	0.111
2.3455	-10.295	0.133
2.346	-10.294	0.114
2.3465	-10.294	0.110
2.347	-10.294	0.131
2.3475	-10.292	0.135
2.348	-10.292	0.158
2.3485	-10.291	0.150
2.349	-10.291	0.113
2.3495	-10.291	0.049
2.35	-10.289	0.016
2.3505	-10.289	-0.015
2.351	-10.289	-0.058
2.3515	-10.288	-0.062
2.352	-10.288	-0.079
2.3525	-10.286	-0.104
2.353	-10.286	-0.116
2.3535	-10.286	-0.147
2.354	-10.284	-0.183
2.3545	-10.284	-0.222
2.355	-10.284	-0.215
2.3555	-10.283	-0.168
2.356	-10.283	-0.128
2.3565	-10.283	-0.111
2.357	-10.281	-0.128
2.3575	-10.281	-0.132
2.358	-10.280	-0.199
2.3585	-10.280	-0.218
2.359	-10.280	-0.197
2.3595	-10.278	-0.174
2.36	-10.278	-0.142
2.3605	-10.278	-0.098
2.361	-10.277	-0.051
2.3615	-10.277	-0.041
2.362	-10.277	-0.015
2.3625	-10.275	0.022
2.363	-10.275	0.016
2.3635	-10.273	0.010
2.364	-10.273	0.037
2.3645	-10.273	0.031
2.365	-10.272	-0.003
2.3655	-10.272	-0.033
2.366	-10.272	-0.062
2.3665	-10.270	-0.100
2.367	-10.270	-0.122
2.3675	-10.270	-0.103
2.368	-10.269	-0.097
2.3685	-10.269	-0.081
2.369	-10.269	-0.064
2.3695	-10.267	-0.056
2.37	-10.267	-0.048
2.3705	-10.267	-0.056
2.371	-10.266	-0.041
2.3715	-10.266	-0.052
2.372	-10.264	-0.027
2.3725	-10.264	0.013
2.373	-10.264	0.063
2.3735	-10.263	0.096
2.374	-10.263	0.148
2.3745	-10.263	0.169
2.375	-10.261	0.168
2.3755	-10.261	0.165
2.376	-10.261	0.169
2.3765	-10.259	0.171
2.377	-10.259	0.148
2.3775	-10.259	0.117
2.378	-10.258	0.085
2.3785	-10.258	0.046
2.379	-10.258	0.057
2.3795	-10.256	0.041
2.38	-10.256	0.003
2.3805	-10.256	-0.013
2.381	-10.255	-0.044
2.3815	-10.255	-0.066
2.382	-10.253	-0.090
2.3825	-10.253	-0.132
2.383	-10.253	-0.117
2.3835	-10.252	-0.117
2.384	-10.252	-0.138
2.3845	-10.252	-0.150
2.385	-10.250	-0.162
2.3855	-10.250	-0.148
2.386	-10.250	-0.117
2.3865	-10.248	-0.058
2.387	-10.248	-0.036
2.3875	-10.248	-0.046
2.388	-10.247	-0.056
2.3885	-10.247	-0.053
2.389	-10.247	-0.021
2.3895	-10.245	-0.034
2.39	-10.245	-0.045
2.3905	-10.245	-0.041
2.391	-10.244	-0.048
2.3915	-10.244	-0.067
2.392	-10.244	-0.084
2.3925	-10.242	-0.060
2.393	-10.242	-0.047
2.3935	-10.242	-0.031
2.394	-10.241	-0.019
2.3945	-10.241	-0.013
2.395	-10.241	0.007
2.3955	-10.239	0.027
2.396	-10.239	0.052
2.3965	-10.239	0.053
2.397	-10.238	0.029
2.3975	-10.238	0.023
2.398	-10.238	-0.005
2.3985	-10.236	-0.026
2.399	-10.236	-0.093
2.3995	-10.236	-0.147
2.4	-10.234	-0.168
2.4005	-10.234	-0.166
2.401	-10.234	-0.149
2.4015	-10.233	-0.101
2.402	-10.233	-0.071
2.4025	-10.233	-0.058
2.403	-10.231	-0.022
2.4035	-10.231	0.012
2.404	-10.231	0.013
2.4045	-10.230	0.012
2.405	-10.230	0.018
2.4055	-10.230	0.068
2.406	-10.228	0.088
2.4065	-10.228	0.068
2.407	-10.228	0.026
2.4075	-10.227	0.015
2.408	-10.227	-0.008
2.4085	-10.227	-0.005
2.409	-10.225	0.005
2.4095	-10.225	0.041
2.41	-10.225	0.073
2.4105	-10.225	0.089
2.411	-10.223	0.106
2.4115	-10.223	0.098
2.412	-10.223	0.096
2.4125	-10.222	0.081
2.413	-10.222	0.091
2.4135	-10.222	0.092
2.414	-10.220	0.103
2.4145	-10.220	0.100
2.415	-10.220	0.083
2.4155	-10.219	0.066
2.416	-10.219	0.022
2.4165	-10.219	0.025
2.417	-10.217	0.066
2.4175	-10.217	0.098
2.418	-10.217	0.104
2.4185	-10.216	0.074
2.419	-10.216	0.043
2.4195	-10.216	0.037
2.42	-10.216	0.048
2.4205	-10.214	0.030
2.421	-10.214	-0.000
2.4215	-10.214	-0.003
2.422	-10.213	-0.004
2.4225	-10.213	0.016
2.423	-10.213	0.013
2.4235	-10.211	0.007
2.424	-10.211	-0.011
2.4245	-10.211	-0.022
2.425	-10.209	-0.011
2.4255	-10.209	-0.041
2.426	-10.209	-0.050
2.4265	-10.208	-0.071
2.427	-10.208	-0.059
2.4275	-10.208	0.013
2.428	-10.208	0.067
2.4285	-10.206	0.128
2.429	-10.206	0.182
2.4295	-10.206	0.194
2.43	-10.205	0.200
2.4305	-10.205	0.210
2.431	-10.205	0.221
2.4315	-10.203	0.220
2.432	-10.203	0.176
2.4325	-10.203	0.157
2.433	-10.203	0.121
2.4335	-10.202	0.071
2.434	-10.202	0.008
2.4345	-10.202	-0.008
2.435	-10.200	-0.052
2.4355	-10.200	-0.108
2.436	-10.200	-0.171
2.4365	-10.198	-0.249
2.437	-10.198	-0.319
2.4375	-10.198	-0.409
2.438	-10.198	-0.476
2.4385	-10.197	-0.521
2.439	-10.197	-0.527
2.4395	-10.197	-0.480
2.44	-10.195	-0.392
2.4405	-10.195	-0.304
2.441	-10.195	-0.245
2.4415	-10.194	-0.213
2.442	-10.194	-0.205
2.4425	-10.194	-0.181
2.443	-10.194	-0.169
2.4435	-10.192	-0.184
2.444	-10.192	-0.194
2.4445	-10.192	-0.233
2.445	-10.191	-0.252
2.4455	-10.191	-0.264
2.446	-10.191	-0.260
2.4465	-10.191	-0.256
2.447	-10.189	-0.246
2.4475	-10.189	-0.236
2.448	-10.189	-0.231
2.4485	-10.188	-0.207
2.449	-10.188	-0.206
2.4495	-10.188	-0.203
2.45	-10.188	-0.157
2.4505	-10.186	-0.125
2.451	-10.186	-0.107
2.4515	-10.186	-0.094
2.452	-10.184	-0.072
2.4525	-10.184	-0.032
2.453	-10.184	0.020
2.4535	-10.184	0.075
2.454	-10.183	0.085
2.4545	-10.183	0.071
2.455	-10.183	0.085
2.4555	-10.181	0.136
2.456	-10.181	0.177
2.4565	-10.181	0.209
2.457	-10.181	0.203
2.4575	-10.180	0.232
2.458	-10.180	0.194
2.4585	-10.180	0.180
2.459	-10.178	0.195
2.4595	-10.178	0.219
2.46	-10.178	0.236
2.4605	-10.178	0.222
2.461	-10.177	0.215
2.4615	-10.177	0.174
2.462	-10.177	0.171
2.4625	-10.177	0.169
2.463	-10.175	0.146
2.4635	-10.175	0.106
2.464	-10.175	0.027
2.4645	-10.173	-0.066
2.465	-10.173	-0.158
2.4655	-10.173	-0.183
2.466	-10.173	-0.193
2.4665	-10.172	-0.183
2.467	-10.172	-0.175
2.4675	-10.172	-0.206
2.468	-10.172	-0.222
2.4685	-10.170	-0.210
2.469	-10.170	-0.175
2.4695	-10.170	-0.138
2.47	-10.169	-0.110
2.4705	-10.169	-0.079
2.471	-10.169	-0.071
2.4715	-10.169	-0.028
2.472	-10.167	-0.003
2.4725	-10.167	0.007
2.473	-10.167	0.003
2.4735	-10.167	0.009
2.474	-10.166	0.050
2.4745	-10.166	0.075
2.475	-10.166	0.084
2.4755	-10.166	0.104
2.476	-10.164	0.098
2.4765	-10.164	0.085
2.477	-10.164	0.054
2.4775	-10.164	0.037
2.478	-10.163	0.034
2.4785	-10.163	0.035
2.479	-10.163	0.024
2.4795	-10.161	-0.002
2.48	-10.161	-0.035
2.4805	-10.161	-0.045
2.481	-10.161	-0.050
2.4815	-10.159	-0.067
2.482	-10.159	-0.092
2.4825	-10.159	-0.135
2.483	-10.159	-0.140
2.4835	-10.158	-0.143
2.484	-10.158	-0.150
2.4845	-10.158	-0.145
2.485	-10.158	-0.129
2.4855	-10.156	-0.138
2.486	-10.156	-0.126
2.4865	-10.156	-0.086
2.487	-10.156	-0.068
2.4875	-10.155	-0.047
2.488	-10.155	-0.034
2.4885	-10.155	0.040
2.489	-10.155	0.089
2.4895	-10.153	0.090
2.49	-10.153	0.072
2.4905	-10.153	0.092
2.491	-10.153	0.128
2.4915	-10.152	0.099
2.492	-10.152	0.109
2.4925	-10.152	0.113
2.493	-10.152	0.127
2.4935	-10.150	0.128
2.494	-10.150	0.142
2.4945	-10.150	0.147
2.495	-10.150	0.137
2.4955	-10.148	0.167
2.496	-10.148	0.180
2.4965	-10.148	0.209
2.497	-10.148	0.218
2.4975	-10.147	0.209
2.498	-10.147	0.158
2.4985	-10.147	0.100
2.499	-10.147	0.039
2.4995	-10.145	0.068
2.5	-10.145	0.074
2.5005	-10.145	0.036
2.501	-10.145	-0.002
2.5015	-10.145	-0.042
2.502	-10.144	-0.068
2.5025	-10.144	-0.125
2.503	-10.144	-0.126
2.5035	-10.144	-0.118
2.504	-10.142	-0.135
2.5045	-10.142	-0.125
2.505	-10.142	-0.110
2.5055	-10.142	-0.098
2.506	-10.141	-0.108
2.5065	-10.141	-0.084
2.507	-10.141	-0.056
2.5075	-10.141	0.004
2.508	-10.139	0.018
2.5085	-10.139	0.014
2.509	-10.139	-0.007
2.5095	-10.139	-0.038
2.51	-10.139	-0.008
2.5105	-10.138	-0.004
2.511	-10.138	-0.021
2.5115	-10.138	-0.023
2.512	-10.138	-0.052
2.5125	-10.136	-0.057
2.513	-10.136	-0.060
2.5135	-10.136	-0.056
2.514	-10.136	-0.063
2.5145	-10.134	-0.073
2.515	-10.134	-0.098
2.5155	-10.134	-0.148
2.516	-10.134	-0.137
2.5165	-10.134	-0.003
2.517	-10.133	0.126
2.5175	-10.133	0.213
2.518	-10.133	0.242
2.5185	-10.133	0.220
2.519	-10.131	0.241
2.5195	-10.131	0.264
2.52	-10.131	0.275
2.5205	-10.131	0.255
2.521	-10.131	0.209
2.5215	-10.130	0.158
2.522	-10.130	0.122
2.5225	-10.130	0.067
2.523	-10.130	-0.008
2.5235	-10.128	-0.045
2.524	-10.128	-0.053
2.5245	-10.128	-0.090
2.525	-10.128	-0.137
2.5255	-10.128	-0.213
2.526	-10.127	-0.293
2.5265	-10.127	-0.346
2.527	-10.127	-0.385
2.5275	-10.127	-0.417
2.528	-10.127	-0.456
2.5285	-10.125	-0.480
2.529	-10.125	-0.456
2.5295	-10.125	-0.390
2.53	-10.125	-0.331
2.5305	-10.123	-0.291
2.531	-10.123	-0.276
2.5315	-10.123	-0.268
2.532	-10.123	-0.264
2.5325	-10.123	-0.271
2.533	-10.122	-0.274
2.5335	-10.122	-0.250
2.534	-10.122	-0.187
2.5345	-10.122	-0.124
2.535	-10.122	-0.059
2.5355	-10.120	-0.000
2.536	-10.120	0.017
2.5365	-10.120	0.037
2.537	-10.120	0.029
2.5375	-10.120	0.027
2.538	-10.119	0.016
2.5385	-10.119	0.003
2.539	-10.119	0.012
2.5395	-10.119	0.023
2.54	-10.119	0.032
2.5405	-10.117	0.033
2.541	-10.117	0.059
2.5415	-10.117	0.081
2.542	-10.117	0.095
2.5425	-10.117	0.092
2.543	-10.116	0.101
2.5435	-10.116	0.117
2.544	-10.116	0.108
2.5445	-10.116	0.070
2.545	-10.116	0.043
2.5455	-10.114	0.024
2.546	-10.114	-0.011
2.5465	-10.114	-0.027
2.547	-10.114	-0.059
2.5475	-10.114	-0.089
2.548	-10.113	-0.098
2.5485	-10.113	-0.072
2.549	-10.113	-0.035
2.5495	-10.113	-0.006
2.55	-10.113	0.042
2.5505	-10.111	0.005
2.551	-10.111	-0.042
2.5515	-10.111	-0.078
2.552	-10.111	-0.041
2.5525	-10.111	0.032
2.553	-10.109	0.077
2.5535	-10.109	0.093
2.554	-10.109	0.054
2.5545	-10.109	0.013
2.555	-10.109	-0.014
2.5555	-10.109	-0.012
2.556	-10.108	0.029
2.5565	-10.108	0.045
2.557	-10.108	0.062
2.5575	-10.108	0.063
2.558	-10.108	0.042
2.5585	-10.106	0.058
2.559	-10.106	0.047
2.5595	-10.106	0.042
2.56	-10.106	0.027
2.5605	-10.106	0.021
2.561	-10.106	-0.007
2.5615	-10.105	-0.039
2.562	-10.105	-0.044
2.5625	-10.105	-0.082
2.563	-10.105	-0.108
2.5635	-10.105	-0.101
2.564	-10.103	-0.082
2.5645	-10.103	-0.066
2.565	-10.103	-0.067
2.5655	-10.103	-0.058
2.566	-10.103	-0.054
2.5665	-10.103	-0.044
2.567	-10.102	-0.054
2.5675	-10.102	-0.076
2.568	-10.102	-0.090
2.5685	-10.102	-0.096
2.569	-10.102	-0.077
2.5695	-10.100	-0.068
2.57	-10.100	-0.052
2.5705	-10.100	-0.014
2.571	-10.100	0.005
2.5715	-10.100	0.037
2.572	-10.100	0.068
2.5725	-10.098	0.110
2.573	-10.098	0.121
2.5735	-10.098	0.128
2.574	-10.098	0.177
2.5745	-10.098	0.175
2.575	-10.098	0.194
2.5755	-10.097	0.178
2.576	-10.097	0.164
2.5765	-10.097	0.174
2.577	-10.097	0.143
2.5775	-10.097	0.129
2.578	-10.097	0.085
2.5785	-10.095	0.060
2.579	-10.095	0.044
2.5795	-10.095	0.053
2.58	-10.095	0.064
2.5805	-10.095	0.063
2.581	-10.095	0.025
2.5815	-10.094	-0.017
2.582	-10.094	-0.058
2.5825	-10.094	-0.131
2.583	-10.094	-0.156
2.5835	-10.094	-0.144
2.584	-10.094	-0.158
2.5845	-10.094	-0.206
2.585	-10.092	-0.236
2.5855	-10.092	-0.249
2.586	-10.092	-0.261
2.5865	-10.092	-0.269
2.587	-10.092	-0.258
2.5875	-10.092	-0.245
2.588	-10.091	-0.202
2.5885	-10.091	-0.160
2.589	-10.091	-0.134
2.5895	-10.091	-0.097
2.59	-10.091	-0.059
2.5905	-10.091	-0.068
2.591	-10.091	-0.047
2.5915	-10.089	-0.055
2.592	-10.089	-0.077
2.5925	-10.089	-0.103
2.593	-10.089	-0.078
2.5935	-10.089	-0.082
2.594	-10.089	-0.107
2.5945	-10.088	-0.090
2.595	-10.088	-0.076
2.5955	-10.088	-0.052
2.596	-10.088	-0.029
2.5965	-10.088	-0.020
2.597	-10.088	-0.035
2.5975	-10.088	-0.076
2.598	-10.086	-0.079
2.5985	-10.086	-0.069
2.599	-10.086	-0.060
2.5995	-10.086	-0.074
2.6	-10.086	-0.070
2.6005	-10.086	-0.058
2.601	-10.086	-0.049
2.6015	-10.084	-0.056
2.602	-10.084	-0.080
2.6025	-10.084	-0.088
2.603	-10.084	-0.073
2.6035	-10.084	-0.066
2.604	-10.084	-0.055
2.6045	-10.084	-0.041
2.605	-10.083	-0.020
2.6055	-10.083	0.017
2.606	-10.083	0.030
2.6065	-10.083	0.040
2.607	-10.083	0.059
2.6075	-10.083	0.109
2.608	-10.083	0.121
2.6085	-10.081	0.105
2.609	-10.081	0.076
2.6095	-10.081	0.067
2.61	-10.081	0.068
2.6105	-10.081	0.073
2.611	-10.081	0.061
2.6115	-10.081	0.056
2.612	-10.081	0.043
2.6125	-10.080	0.042
2.613	-10.080	0.035
2.6135	-10.080	0.045
2.614	-10.080	0.035
2.6145	-10.080	-0.009
2.615	-10.080	-0.028
2.6155	-10.080	-0.052
2.616	-10.080	-0.059
2.6165	-10.078	-0.066
2.617	-10.078	-0.094
2.6175	-10.078	-0.122
2.618	-10.078	-0.155
2.6185	-10.078	-0.151
2.619	-10.078	-0.143
2.6195	-10.078	-0.108
2.62	-10.078	-0.065
2.6205	-10.077	-0.028
2.621	-10.077	0.031
2.6215	-10.077	0.094
2.622	-10.077	0.149
2.6225	-10.077	0.186
2.623	-10.077	0.255
2.6235	-10.077	0.319
2.624	-10.077	0.375
2.6245	-10.075	0.390
2.625	-10.075	0.372
2.6255	-10.075	0.363
2.626	-10.075	0.355
2.6265	-10.075	0.321
2.627	-10.075	0.315
2.6275	-10.075	0.341
2.628	-10.075	0.325
2.6285	-10.073	0.234
2.629	-10.073	0.120
2.6295	-10.073	0.019
2.63	-10.073	-0.078
2.6305	-10.073	-0.161
2.631	-10.073	-0.243
2.6315	-10.073	-0.274
2.632	-10.073	-0.311
2.6325	-10.073	-0.399
2.633	-10.072	-0.437
2.6335	-10.072	-0.486
2.634	-10.072	-0.529
2.6345	-10.072	-0.546
2.635	-10.072	-0.547
2.6355	-10.072	-0.499
2.636	-10.072	-0.460
2.6365	-10.072	-0.405
2.637	-10.072	-0.345
2.6375	-10.070	-0.294
2.638	-10.070	-0.224
2.6385	-10.070	-0.170
2.639	-10.070	-0.143
2.6395	-10.070	-0.133
2.64	-10.070	-0.127
2.6405	-10.070	-0.116
2.641	-10.070	-0.104
2.6415	-10.070	-0.088
2.642	-10.070	-0.102
2.6425	-10.069	-0.073
2.643	-10.069	-0.054
2.6435	-10.069	-0.037
2.644	-10.069	-0.034
2.6445	-10.069	-0.012
2.645	-10.069	-0.002
2.6455	-10.069	0.004
2.646	-10.069	0.035
2.6465	-10.069	0.049
2.647	-10.069	0.060
2.6475	-10.067	0.053
2.648	-10.067	0.044
2.6485	-10.067	0.068
2.649	-10.067	0.069
2.6495	-10.067	0.062
2.65	-10.067	0.052
2.6505	-10.067	0.045
2.651	-10.067	0.023
2.6515	-10.067	0.020
2.652	-10.067	0.027
2.6525	-10.067	0.026
2.653	-10.066	0.032
2.6535	-10.066	0.014
2.654	-10.066	-0.020
2.6545	-10.066	-0.036
2.655	-10.066	-0.029
2.6555	-10.066	-0.021
2.656	-10.066	-0.014
2.6565	-10.066	-0.019
2.657	-10.066	-0.012
2.6575	-10.066	-0.010
2.658	-10.066	-0.029
2.6585	-10.064	-0.000
2.659	-10.064	0.014
2.6595	-10.064	0.035
2.66	-10.064	0.041
2.6605	-10.064	0.030
2.661	-10.064	0.023
2.6615	-10.064	0.001
2.662	-10.064	-0.003
2.6625	-10.064	-0.015
2.663	-10.064	0.005
2.6635	-10.064	0.008
2.664	-10.063	0.037
2.6645	-10.063	0.022
2.665	-10.063	0.006
2.6655	-10.063	-0.017
2.666	-10.063	-0.048
2.6665	-10.063	-0.033
2.667	-10.063	-0.026
2.6675	-10.063	-0.020
2.668	-10.063	-0.041
2.6685	-10.063	-0.057
2.669	-10.063	-0.058
2.6695	-10.063	-0.053
2.67	-10.063	-0.039
2.6705	-10.061	-0.051
2.671	-10.061	-0.070
2.6715	-10.061	-0.087
2.672	-10.061	-0.071
2.6725	-10.061	-0.042
2.673	-10.061	-0.023
2.6735	-10.061	-0.019
2.674	-10.061	-0.015
2.6745	-10.061	-0.027
2.675	-10.061	-0.022
2.6755	-10.061	-0.021
2.676	-10.061	-0.020
2.6765	-10.061	-0.016
2.677	-10.061	-0.018
2.6775	-10.059	-0.015
2.678	-10.059	-0.011
2.6785	-10.059	-0.028
2.679	-10.059	-0.016
2.6795	-10.059	0.009
2.68	-10.059	0.055
2.6805	-10.059	0.056
2.681	-10.059	0.084
2.6815	-10.059	0.100
2.682	-10.059	0.095
2.6825	-10.059	0.075
2.683	-10.059	0.080
2.6835	-10.059	0.093
2.684	-10.059	0.116
2.6845	-10.059	0.153
2.685	-10.058	0.162
2.6855	-10.058	0.165
2.686	-10.058	0.188
2.6865	-10.058	0.220
2.687	-10.058	0.297
2.6875	-10.058	0.322
2.688	-10.058	0.298
2.6885	-10.058	0.262
2.689	-10.058	0.241
2.6895	-10.058	0.202
2.69	-10.058	0.142
2.6905	-10.058	0.111
2.691	-10.058	0.035
2.6915	-10.058	-0.046
2.692	-10.058	-0.128
2.6925	-10.058	-0.192
2.693	-10.056	-0.244
2.6935	-10.056	-0.279
2.694	-10.056	-0.266
2.6945	-10.056	-0.237
2.695	-10.056	-0.227
2.6955	-10.056	-0.225
2.696	-10.056	-0.215
2.6965	-10.056	-0.194
2.697	-10.056	-0.191
2.6975	-10.056	-0.220
2.698	-10.056	-0.241
2.6985	-10.056	-0.220
2.699	-10.056	-0.196
2.6995	-10.056	-0.163
2.7	-10.056	-0.147
2.7005	-10.056	-0.151
2.701	-10.056	-0.149
2.7015	-10.056	-0.140
2.702	-10.056	-0.130
2.7025	-10.055	-0.110
2.703	-10.055	-0.041
2.7035	-10.055	0.032
2.704	-10.055	0.077
2.7045	-10.055	0.087
2.705	-10.055	0.099
2.7055	-10.055	0.103
2.706	-10.055	0.123
2.7065	-10.055	0.142
2.707	-10.055	0.148
2.7075	-10.055	0.169
2.708	-10.055	0.127
2.7085	-10.055	0.116
2.709	-10.055	0.125
2.7095	-10.055	0.157
2.71	-10.055	0.191
2.7105	-10.055	0.208
2.711	-10.055	0.231
2.7115	-10.055	0.219
2.712	-10.055	0.217
2.7125	-10.055	0.193
2.713	-10.055	0.117
2.7135	-10.055	0.032
2.714	-10.053	0.002
2.7145	-10.053	-0.016
2.715	-10.053	-0.028
2.7155	-10.053	-0.044
2.716	-10.053	-0.065
2.7165	-10.053	-0.072
2.717	-10.053	-0.071
2.7175	-10.053	-0.091
2.718	-10.053	-0.120
2.7185	-10.053	-0.147
2.719	-10.053	-0.173
