C:\DOCUMENTS AND SETTINGS\ADMINISTRATOR\DESKTOP\EFFORT\PATIENT 3\PATIENT 3 TRACINGS\ACQ_3.7\EFFORT3_COMPLETE_OLD.ACQ
5.000000 msec/sample
5 channels
Paw
cmH2O
Peso
cmH2O
Pgas
cmH2O
Flow
L/s
PL
cmH2O
CH1	CH2	CH3	CH4	CH40	
64149	64149	64149	64149	64149	
6.0774	10.4856	13.1998	-0.0562419	-4.40823	
6.10459	10.4509	13.1523	-0.0559475	-4.34634	
6.0774	10.3815	13.1862	-0.0559475	-4.30413	
6.10459	10.326	13.1998	-0.0547696	-4.22143	
6.15218	10.2844	13.2134	-0.0550641	-4.1322	
6.17257	10.2636	13.2269	-0.0547696	-4.09099	
6.23375	10.2566	13.2066	-0.0565364	-4.02287	
6.19296	10.208	13.1998	-0.0585977	-4.01508	
6.24055	10.2566	13.1795	-0.06007	-4.01607	
6.25415	10.1803	13.2269	-0.0624257	-3.92614	
6.33572	10.2566	13.254	-0.0650759	-3.9209	
6.30853	10.2844	13.2337	-0.0680206	-3.97585	
6.33572	10.326	13.254	-0.0709653	-3.99029	
6.29493	10.2983	13.2608	-0.0736155	-4.00332	
6.30853	10.2844	13.2269	-0.0765602	-3.97585	
6.25415	10.2774	13.2879	-0.0792104	-4.02329	
6.29493	10.3121	13.2608	-0.082155	-4.0172	
6.20656	10.2844	13.2608	-0.0853942	-4.07782	
6.16577	10.3121	13.2608	-0.0868665	-4.14636	
6.11139	10.2427	13.3015	-0.0880444	-4.13135	
6.0774	10.2774	13.3354	-0.0877499	-4.20004	
6.01622	10.1872	13.3489	-0.0862776	-4.17101	
5.99582	10.2219	13.3083	-0.0842163	-4.2261	
5.93464	10.2427	13.3422	-0.0815661	-4.3081	
5.96863	10.1525	13.2812	-0.0774436	-4.1839	
5.97543	10.1386	13.3354	-0.0730265	-4.16322	
6.02301	10.1525	13.3489	-0.0680206	-4.12951	
5.99582	10.1109	13.3489	-0.0647815	-4.11507	
6.05021	10.1317	13.2676	-0.0624257	-4.0815	
6.05021	10.104	13.3422	-0.0621313	-4.05375	
5.69671	12.9283	21.3963	0.250593	-7.23163	
5.89385	12.9422	21.4031	0.2768	-7.04836	
6.00262	12.9283	21.4641	0.303008	-6.92572	
6.16577	12.8798	21.4709	0.328627	-6.71399	
6.30173	12.8312	21.4709	0.35189	-6.52945	
6.45129	12.8728	21.5048	0.372502	-6.42153	
6.66203	12.8312	21.5183	0.391643	-6.16916	
6.79119	12.8451	21.5319	0.408427	-6.05388	
6.82518	12.7687	21.5929	0.423151	-5.94355	
6.94754	12.8104	21.6471	0.436402	-5.86282	
6.98153	12.7202	21.6675	0.448475	-5.73862	
7.04271	12.6855	21.6742	0.459665	-5.64274	
7.0835	12.7063	21.742	0.470265	-5.62277	
7.27385	12.6785	21.7353	0.479688	-5.40467	
7.33503	12.7132	21.8166	0.489111	-5.37819	
7.21946	12.6022	21.8776	0.498534	-5.38272	
7.26025	12.6438	21.8437	0.507957	-5.38357	
7.40301	12.6091	21.8912	0.517675	-5.20611	
7.31463	12.512	21.9183	0.527981	-5.19733	
7.04951	12.5258	21.9929	0.536815	-5.47633	
7.05631	12.4079	21.9386	0.546532	-5.35156	
7.02912	12.3524	22.0471	0.554188	-5.32324	
7.11749	12.2899	22.0539	0.559194	-5.17241	
7.21266	12.1164	22.1285	0.562139	-4.90375	
7.30784	12.1095	22.1285	0.563023	-4.80164	
7.24665	11.9846	22.2844	0.563317	-4.73791	
7.23306	11.8943	22.2505	0.563023	-4.66129	
7.21266	11.8041	22.3047	0.564789	-4.59147	
7.26025	11.6931	22.298	0.567734	-4.43285	
7.37582	11.6306	22.3251	0.572445	-4.25483	
7.27385	11.5127	22.4064	0.57804	-4.23883	
7.4166	11.4016	22.4403	0.58393	-3.98504	
7.48458	11.242	22.5081	0.589819	-3.75745	
7.4438	11.1449	22.5488	0.596886	-3.70108	
7.45059	11.013	22.6234	0.602481	-3.56244	
7.55936	10.8742	22.6573	0.607487	-3.31488	
7.53217	10.7424	22.6844	0.610137	-3.21022	
7.66133	10.6175	22.7657	0.610726	-2.95614	
7.70212	10.4926	22.7996	0.609254	-2.79045	
7.84488	10.326	22.881	0.606309	-2.48114	
7.91966	10.2636	22.9013	0.603659	-2.34391	
7.97404	10.104	22.942	0.602481	-2.12991	
7.94685	9.97904	23.0302	0.602187	-2.03219	
8.01483	9.89577	23.0505	0.601009	-1.88094	
8.00803	9.82637	23.1522	0.599831	-1.81834	
8.02842	9.73616	23.2132	0.596297	-1.70773	
8.25956	9.65982	23.2946	0.594825	-1.40027	
8.31394	9.59737	23.342	0.593647	-1.28343	
8.25276	9.56267	23.3352	0.592764	-1.30991	
8.28675	9.46552	23.4573	0.591291	-1.17877	
8.41591	9.45164	23.5318	0.588641	-1.03573	
8.42271	9.38224	23.559	0.584519	-0.959534	
8.40911	9.28509	23.6539	0.579218	-0.875976	
8.49749	9.21569	23.742	0.574507	-0.718207	
8.38192	9.10466	23.8098	0.569206	-0.722741	
8.38192	9.0769	23.8505	0.5642	-0.694983	
8.42951	9.02833	23.9251	0.559489	-0.59882	
8.39552	8.95893	23.9996	0.555366	-0.563415	
8.48389	8.85484	24.0539	0.553011	-0.370948	
8.40231	8.79932	24.1352	0.552127	-0.397008	
8.41591	8.75074	24.203	0.553305	-0.334835	
8.62665	8.68135	24.2911	0.554483	-0.0547017	
8.61985	8.63277	24.3657	0.555661	-0.012923	
8.64704	8.55644	24.3793	0.556544	0.0906038	
8.68103	8.48704	24.481	0.555366	0.193989	
8.85778	8.50092	24.5556	0.552422	0.356858	
8.86458	8.42459	24.6505	0.548299	0.439991	
8.91896	8.39683	24.7318	0.542115	0.522133	
8.90536	8.33437	24.8539	0.535343	0.570992	
8.91216	8.27886	24.9216	0.528864	0.633307	
8.83738	8.23028	25.0572	0.522975	0.607105	
8.76261	8.20252	25.1115	0.518558	0.560086	
8.87137	8.14007	25.186	0.515024	0.731309	
8.86458	8.09149	25.3081	0.512374	0.773088	
8.82379	8.02209	25.4233	0.510018	0.801695	
8.80339	7.98046	25.5725	0.508546	0.822938	
8.68783	7.8833	25.6064	0.506485	0.804526	
8.75581	7.83473	25.742	0.504129	0.921082	
8.84418	7.80003	25.7827	0.502068	1.04415	
8.89857	7.75839	25.9386	0.498534	1.14018	
8.81699	7.68206	26.081	0.496178	1.13493	
8.86458	7.66124	26.1962	0.494412	1.20334	
8.89177	7.59878	26.2911	0.492056	1.29299	
8.95975	7.5849	26.4064	0.4897	1.37485	
8.98694	7.60572	26.5148	0.487639	1.38122	
8.98014	7.61266	26.6233	0.485872	1.36748	
8.95975	7.59878	26.7589	0.485283	1.36097	
8.95295	7.59184	26.8606	0.482339	1.36111	
8.93256	7.61266	26.9962	0.480277	1.3199	
8.97334	7.55715	27.125	0.476449	1.4162	
9.00054	7.53633	27.247	0.473504	1.46421	
8.91896	7.51551	27.403	0.469971	1.40345	
8.91216	7.51551	27.5928	0.468204	1.39665	
8.92576	7.56409	27.708	0.467026	1.36167	
8.83738	7.56409	27.7894	0.467026	1.2733	
8.82379	7.57102	27.9453	0.467026	1.25276	
8.84418	7.55715	28.0741	0.467321	1.28704	
8.783	7.57796	28.2368	0.46791	1.20504	
8.80339	7.59184	28.3589	0.467615	1.21155	
8.82379	7.5849	28.5284	0.468204	1.23889	
8.7762	7.55715	28.7114	0.468499	1.21906	
8.81699	7.59878	28.7996	0.469971	1.21821	
8.83059	7.6196	29.0029	0.469971	1.21099	
8.82379	7.64736	29.1385	0.47056	1.17643	
8.72182	7.62654	29.3148	0.472032	1.09528	
8.73542	7.66818	29.4707	0.473504	1.06724	
8.68783	7.66124	29.6063	0.475271	1.02659	
8.72182	7.64736	29.8233	0.47851	1.07446	
8.67423	7.62654	29.9046	0.480277	1.04769	
8.61305	7.63348	30.1148	0.482044	0.979571	
8.63345	7.62654	30.2572	0.484694	1.0069	
8.58586	7.689	30.4334	0.486756	0.896863	
8.56547	7.6196	30.6165	0.487639	0.945864	
8.64024	7.64042	30.8334	0.490584	0.999823	
8.59266	7.64042	30.9419	0.49235	0.952237	
8.61305	7.66818	31.0571	0.492645	0.944873	
8.59266	7.62654	31.2809	0.494412	0.966116	
8.59946	7.59184	31.5046	0.494117	1.00761	
8.61305	7.59184	31.6605	0.496178	1.02121	
8.53148	7.6543	31.8232	0.49824	0.877176	
8.55187	7.59878	31.9995	0.500007	0.953086	
8.50428	7.59878	32.1622	0.501773	0.9055	
8.41591	7.64736	32.3385	0.503835	0.76855	
8.56547	7.6543	32.5486	0.505601	0.911166	
8.4499	7.59184	32.752	0.508252	0.858056	
8.41591	7.5849	32.9147	0.509724	0.831005	
8.47709	7.55715	33.1113	0.511196	0.919946	
8.59946	7.59878	33.3012	0.513846	1.00067	
8.55867	7.55715	33.5452	0.515613	1.00152	
8.51108	7.53633	33.6944	0.516497	0.974754	
8.53827	7.5849	33.891	0.517969	0.953369	
8.53827	7.52939	34.074	0.518852	1.00889	
8.57906	7.50163	34.2435	0.518264	1.07743	
8.64024	7.52939	34.4808	0.519441	1.11086	
8.47029	7.52245	34.6706	0.520619	0.947845	
8.61305	7.48775	34.8605	0.522975	1.1253	
8.67423	7.44611	35.0842	0.525625	1.22812	
8.68103	7.43917	35.2876	0.528275	1.24186	
8.66064	7.3906	35.4503	0.532398	1.27004	
8.70822	7.41142	35.674	0.535637	1.29681	
8.57906	7.41142	35.9045	0.538582	1.16765	
8.63345	7.41836	36.0605	0.540054	1.21509	
8.70822	7.34896	36.3181	0.541526	1.35926	
8.72182	7.27263	36.535	0.542704	1.44919	
8.72862	7.30038	36.7181	0.543882	1.42823	
8.66064	7.25875	36.996	0.544766	1.40189	
8.68103	7.21711	37.2333	0.545649	1.46392	
8.68783	7.26569	37.4299	0.545649	1.42214	
8.7762	7.23793	37.6198	0.544177	1.53828	
8.83059	7.18935	37.8774	0.543588	1.64124	
8.783	7.23099	38.0875	0.542704	1.55201	
8.7898	7.13383	38.3045	0.540349	1.65596	
8.85098	7.11996	38.4808	0.538582	1.73103	
8.84418	7.13383	38.7452	0.536226	1.71035	
8.89177	7.08526	38.9757	0.532987	1.80651	
8.89857	7.06444	39.1384	0.530042	1.83413	
8.97334	7.03668	39.4299	0.527686	1.93666	
8.87817	7.0575	39.6536	0.525036	1.82067	
8.89857	7.06444	39.8638	0.522386	1.83413	
8.83059	7.0228	40.1011	0.52003	1.80778	
8.81699	6.96729	40.3045	0.517969	1.84971	
8.82379	6.97423	40.5417	0.517675	1.84956	
8.81699	6.89095	40.7587	0.517969	1.92604	
8.81019	6.91177	40.935	0.519147	1.89842	
8.82379	6.85625	41.1858	0.520619	1.96754	
8.81699	6.83543	41.4299	0.521503	1.98156	
8.7898	6.73828	41.6671	0.523858	2.05152	
8.75581	6.6897	41.8841	0.525036	2.0661	
8.76261	6.54397	42.0807	0.527098	2.21863	
8.76941	6.50928	42.3112	0.530042	2.26013	
8.71502	6.46764	42.5214	0.531809	2.24738	
8.74901	6.29415	42.7383	0.533281	2.45486	
8.72862	6.197	42.9756	0.534459	2.53162	
8.73542	6.07903	43.1586	0.535637	2.65639	
8.7898	5.95412	43.4027	0.534459	2.83568	
8.75581	5.8639	43.579	0.533281	2.89191	
8.75581	5.75981	43.8366	0.531809	2.996	
8.783	5.67653	44.0332	0.530042	3.10647	
8.83059	5.5308	44.2773	0.527098	3.29978	
8.98014	5.46835	44.4535	0.524742	3.51179	
9.00733	5.3365	44.6908	0.521208	3.67084	
9.00733	5.25322	44.8535	0.518558	3.75411	
9.07531	5.13525	45.0637	0.515319	3.94006	
9.05492	5.0381	45.2671	0.511196	4.01682	
9.17728	5.01034	45.4569	0.508841	4.16695	
9.23847	4.92707	45.6535	0.505307	4.3114	
9.27246	4.78134	45.884	0.502068	4.49112	
9.27246	4.69112	46.0332	0.497651	4.58134	
9.1365	4.58703	46.2366	0.493528	4.54947	
9.21127	4.41354	46.3789	0.488522	4.79773	
9.23847	4.30251	46.5281	0.482633	4.93596	
9.21127	4.24005	46.6908	0.47851	4.97122	
9.16369	4.05962	46.8196	0.473799	5.10406	
9.09571	3.88614	46.9145	0.471443	5.20957	
9.1229	3.83062	47.023	0.469676	5.29228	
9.09571	3.6155	47.0569	0.467321	5.48021	
9.06172	3.5808	47.1721	0.46467	5.48092	
9.05492	3.46976	47.2128	0.462315	5.58516	
9.00733	3.26852	47.2467	0.460548	5.73882	
9.15689	3.19218	47.2738	0.458192	5.96471	
9.15009	3.11585	47.3213	0.456425	6.03424	
9.15689	2.97706	47.301	0.45407	6.17983	
9.19088	2.90072	47.301	0.451125	6.29016	
9.05492	2.78969	47.3823	0.450242	6.26523	
9.06852	2.74805	47.4162	0.448769	6.32046	
9.17049	2.66478	47.4298	0.446119	6.50571	
9.05492	2.56069	47.4162	0.446708	6.49423	
8.89857	2.47047	47.4365	0.446414	6.42809	
9.02093	2.39414	47.4501	0.446414	6.62679	
8.96655	2.33168	47.4433	0.447297	6.63486	
8.98014	2.24147	47.4501	0.447297	6.73867	
9.03453	2.18595	47.423	0.446708	6.84857	
9.07531	2.13738	47.5111	0.444941	6.93794	
9.00054	2.11656	47.484	0.442291	6.88398	
9.02093	2.10268	47.4908	0.438757	6.91825	
9.07531	2.00553	47.4772	0.436696	7.06979	
9.1297	1.97083	47.4908	0.433751	7.15887	
9.07531	1.98471	47.4908	0.432868	7.09061	
9.04132	1.99165	47.5179	0.433751	7.04968	
9.04812	1.95001	47.5179	0.434929	7.09811	
9.04132	1.97083	47.5586	0.435518	7.0705	
9.00733	1.95695	47.5315	0.43758	7.05039	
9.01413	1.98471	47.5518	0.439052	7.02943	
9.00733	1.92919	47.5315	0.440524	7.07814	
9.05492	1.94307	47.5654	0.441702	7.11185	
9.05492	1.95695	47.5518	0.442291	7.09797	
9.02773	1.95695	47.5654	0.441997	7.07078	
9.05492	1.93613	47.5789	0.441113	7.11879	
9.04812	1.99165	47.5654	0.439346	7.05648	
9.07531	1.96389	47.5586	0.437285	7.11143	
9.02773	1.94307	47.5586	0.434635	7.08466	
9.09571	1.97777	47.5925	0.433162	7.11794	
9.04812	1.93613	47.6535	0.430512	7.11199	
9.04812	1.94307	47.6196	0.427568	7.10505	
9.02773	1.96389	47.5925	0.424328	7.06384	
9.1229	1.97083	47.5993	0.423151	7.15207	
9.1365	1.98471	47.5925	0.424328	7.15179	
9.15689	1.97777	47.5382	0.425506	7.17912	
9.17049	2.03328	47.6399	0.426684	7.1372	
9.21807	1.99859	47.6399	0.426684	7.21949	
9.23167	2.0541	47.6467	0.424623	7.17757	
9.33364	1.98471	47.6535	0.422856	7.34893	
9.35403	2.02634	47.6264	0.419323	7.32769	
9.32004	2.07492	47.6467	0.416083	7.24512	
9.38122	2.06798	47.6738	0.413728	7.31324	
9.39482	2.0888	47.667	0.409605	7.30602	
9.51718	2.08186	47.6128	0.40666	7.43532	
9.58516	2.17207	47.667	0.401655	7.41309	
9.64635	2.17207	47.6874	0.396354	7.47427	
9.72112	2.19983	47.6942	0.39017	7.52129	
9.76871	2.24147	47.6874	0.382809	7.52724	
9.86388	2.30392	47.6738	0.374269	7.55996	
9.91147	2.28311	47.6535	0.363374	7.62836	
9.99304	2.35944	47.6535	0.35189	7.6336	
10.1358	2.3872	47.6603	0.338933	7.7486	
10.1902	2.45659	47.6874	0.325388	7.73359	
10.231	2.49823	47.6942	0.310664	7.73274	
10.3465	2.54681	47.7145	0.29653	7.79973	
10.299	2.60232	47.7213	0.281217	7.69663	
10.3737	2.6856	47.6942	0.265611	7.68813	
10.3669	2.74111	47.7213	0.248826	7.62582	
10.5097	2.81745	47.7077	0.231452	7.69224	
10.4281	2.85909	47.7145	0.214079	7.56903	
10.5369	2.9493	47.7281	0.196116	7.58758	
10.6321	3.03257	47.7077	0.179332	7.59948	
10.734	3.10891	47.7213	0.162253	7.62512	
10.7612	3.20606	47.6942	0.145174	7.55515	
8.56547	3.29628	47.6874	0.1278	5.26919	
7.93325	3.40731	47.7077	0.110426	4.52594	
9.59876	3.48364	47.7416	0.092464	6.11512	
9.08891	3.55998	47.7009	0.0709679	5.52893	
7.99443	3.62937	47.7823	0.0444658	4.36506	
7.26705	3.69877	47.7009	0.0100132	3.56828	
7.32143	3.78204	47.6942	-0.0368071	3.53939	
7.79729	3.91389	47.7077	-0.0957005	3.8834	
8.22557	3.94859	47.7416	-0.164017	4.27697	
8.1168	4.03881	47.7552	-0.237339	4.07799	
7.74971	4.09432	47.7348	-0.308011	3.65538	
7.81769	4.21229	47.8026	-0.370733	3.60539	
7.96044	4.29557	47.7823	-0.424031	3.66487	
7.98084	4.39272	47.7552	-0.464373	3.58812	
8.02163	4.48294	47.7891	-0.49382	3.53869	
7.96044	4.51069	47.7552	-0.512077	3.44975	
7.85847	4.62867	47.7552	-0.520911	3.22981	
8.08281	4.69806	47.7484	-0.523561	3.38475	
7.99443	4.80215	47.7552	-0.522678	3.19228	
7.95365	4.87155	47.7484	-0.520617	3.0821	
8.04882	5.0381	47.762	-0.516494	3.01072	
8.13039	5.11443	47.7552	-0.512077	3.01596	
8.26635	5.22546	47.8094	-0.510899	3.04089	
8.22557	5.32262	47.7484	-0.510899	2.90295	
8.1168	5.46835	47.7552	-0.513844	2.64845	
8.1168	5.52386	47.7348	-0.51885	2.59293	
8.21877	5.62796	47.7552	-0.522678	2.59081	
8.38872	5.75981	47.7416	-0.528273	2.62891	
8.36153	5.87084	47.7823	-0.532395	2.49068	
8.29355	5.94718	47.7484	-0.537107	2.34637	
8.26635	6.03739	47.7891	-0.543291	2.22896	
8.36153	6.15536	47.7687	-0.550652	2.20616	
8.42271	6.28027	47.7959	-0.558603	2.14243	
8.51788	6.40518	47.7484	-0.567437	2.11269	
8.50428	6.5301	47.8094	-0.575976	1.97419	
8.53148	6.62031	47.7891	-0.585399	1.91117	
8.47709	6.75216	47.7552	-0.594233	1.72493	
8.54507	6.86319	47.8026	-0.602773	1.68188	
8.47029	6.94647	47.7755	-0.608662	1.52383	
8.4635	7.03668	47.762	-0.614552	1.42681	
8.4499	7.13383	47.7755	-0.61838	1.31606	
8.51108	7.17547	47.7959	-0.621324	1.33561	
8.42271	7.26569	47.7416	-0.622797	1.15702	
8.4499	7.41142	47.7755	-0.624564	1.03848	
8.40231	7.48081	47.7687	-0.628392	0.921502	
8.35473	7.44611	47.7416	-0.63222	0.908614	
8.32074	7.50857	47.7823	-0.635753	0.812168	
8.41591	7.57102	47.7823	-0.638109	0.844885	
8.40911	7.63348	47.7891	-0.638698	0.775631	
8.47029	7.63348	47.7552	-0.637815	0.836813	
8.40911	7.63348	47.7959	-0.63752	0.775631	
8.33433	7.67512	47.7959	-0.638698	0.659216	
8.41591	7.72369	47.7891	-0.639287	0.692215	
8.48389	7.77921	47.7891	-0.640465	0.704679	
8.42271	7.82085	47.7891	-0.641348	0.60186	
8.51108	7.84167	47.7755	-0.641348	0.669415	
8.51108	7.918	47.7484	-0.639287	0.59308	
8.42951	7.91106	47.7823	-0.636931	0.518444	
8.40231	7.91106	47.7755	-0.634281	0.491252	
8.42951	7.93882	47.7959	-0.630453	0.490686	
8.40911	7.94576	47.8298	-0.628686	0.463352	
8.51108	8.00821	47.8094	-0.625741	0.502866	
8.50428	7.93188	47.8094	-0.625152	0.572403	
8.4431	8.00821	47.7484	-0.625741	0.434886	
8.48389	8.07761	47.7687	-0.628097	0.406279	
8.38192	8.04291	47.8162	-0.63222	0.339007	
8.40231	8.09843	47.8094	-0.636048	0.303885	
8.47709	8.07761	47.8026	-0.639876	0.399481	
8.36832	8.15394	47.7484	-0.643115	0.214378	
8.51788	8.20946	47.8094	-0.644587	0.308418	
8.42271	8.20946	47.7959	-0.64606	0.213246	
8.25956	8.26498	47.8298	-0.646354	-0.00542195	
8.35473	8.32049	47.7891	-0.64606	0.0342338	
8.32754	8.40377	47.7959	-0.645471	-0.0762325	
8.38192	8.43153	47.7959	-0.643704	-0.0496066	
8.38192	8.49398	47.8298	-0.641937	-0.112062	
8.34793	8.5148	47.8501	-0.638403	-0.166871	
8.32074	8.5495	47.7959	-0.63487	-0.228761	
8.38872	8.59807	47.7755	-0.632809	-0.209357	
8.20517	8.63971	47.8365	-0.631631	-0.43454	
8.15759	8.61889	47.8026	-0.631336	-0.461308	
8.13039	8.71605	47.8298	-0.631336	-0.585653	
8.0964	8.71605	47.823	-0.632514	-0.619643	
8.05562	8.70217	47.8162	-0.631925	-0.646552	
8.00803	8.78544	47.823	-0.630453	-0.777412	
7.98764	8.71605	47.7552	-0.627803	-0.728411	
8.01483	8.7438	47.8094	-0.624564	-0.728977	
7.96044	8.73687	47.8162	-0.62103	-0.776422	
8.00123	8.82708	47.7891	-0.617496	-0.825847	
8.03522	8.80626	47.8365	-0.613374	-0.771039	
8.02842	8.82708	47.7959	-0.609546	-0.798655	
8.04202	8.82014	47.7552	-0.606012	-0.77812	
8.05562	8.91729	47.8162	-0.603656	-0.861677	
8.13039	8.97281	47.8162	-0.602184	-0.842415	
8.1032	8.99363	47.8162	-0.600417	-0.890426	
8.18478	9.04914	47.7959	-0.597767	-0.864366	
8.1236	9.11854	47.7755	-0.594528	-0.994944	
8.08281	9.13936	47.8094	-0.592467	-1.05655	
8.07601	9.15324	47.7959	-0.590111	-1.07723	
8.11	9.21569	47.7891	-0.589227	-1.10569	
8.08961	9.26427	47.8501	-0.587461	-1.17466	
8.01483	9.24345	47.8298	-0.585399	-1.22862	
7.97404	9.29897	47.8365	-0.583633	-1.32493	
8.16438	9.39612	47.7755	-0.580982	-1.23174	
8.08281	9.41	47.8433	-0.577449	-1.32719	
8.02842	9.41694	47.8298	-0.575976	-1.38852	
7.97404	9.52103	47.7891	-0.57421	-1.54699	
7.96724	9.51409	47.7959	-0.572737	-1.54685	
7.98084	9.53491	47.7687	-0.571854	-1.55407	
8.08961	9.59737	47.8569	-0.570676	-1.50776	
7.98764	9.66676	47.8026	-0.568026	-1.67913	
7.94005	9.66676	47.8637	-0.566259	-1.72671	
7.88567	9.7084	47.8026	-0.563314	-1.82273	
7.94685	9.81249	47.7959	-0.562137	-1.86564	
8.02842	9.77085	47.7891	-0.560664	-1.74243	
8.04202	9.84719	47.8365	-0.558897	-1.80517	
7.98084	9.9374	47.8094	-0.557425	-1.95657	
7.96044	9.93046	47.8433	-0.557131	-1.97002	
8.00123	9.99986	47.8298	-0.557131	-1.99863	
7.98084	10.0276	47.8637	-0.556247	-2.04678	
8.00803	10.0693	47.7755	-0.555069	-2.06122	
8.05562	10.0831	47.8026	-0.553597	-2.02752	
7.87887	10.1386	47.7959	-0.551536	-2.25978	
7.96724	10.1803	47.8162	-0.551241	-2.21304	
7.97404	10.2011	47.8704	-0.550652	-2.22707	
7.87207	10.208	47.7891	-0.550358	-2.33597	
7.93325	10.326	47.8365	-0.551241	-2.39276	
7.92645	10.4024	47.8162	-0.551241	-2.4759	
7.92645	10.4232	47.8026	-0.550652	-2.49672	
7.85168	10.4717	47.8501	-0.549769	-2.62007	
7.91286	10.4717	47.7891	-0.54918	-2.55889	
7.83808	10.5689	47.7891	-0.549769	-2.73082	
7.80409	10.6036	47.8162	-0.551241	-2.79951	
7.82448	10.6314	47.7755	-0.553302	-2.80687	
7.7565	10.6938	47.8298	-0.556247	-2.93731	
7.7633	10.7285	47.8365	-0.558603	-2.96521	
7.79049	10.7632	47.8704	-0.560075	-2.97271	
7.7565	10.8187	47.823	-0.559192	-3.06222	
7.7565	10.8742	47.8501	-0.556542	-3.11774	
7.72251	10.8812	47.8365	-0.552419	-3.15866	
7.69532	10.9575	47.7755	-0.546824	-3.26219	
7.7633	10.9506	47.8162	-0.54064	-3.18727	
7.74971	11.02	47.8026	-0.534457	-3.27026	
7.62734	11.0477	47.8162	-0.528273	-3.42039	
7.70212	11.0963	47.7891	-0.523561	-3.39418	
7.70892	11.0963	47.8365	-0.517966	-3.38739	
7.64094	11.1518	47.8569	-0.512666	-3.51088	
7.53897	11.2073	47.8298	-0.508249	-3.66837	
7.58655	11.242	47.8433	-0.50501	-3.65548	
7.51178	11.2975	47.7959	-0.502654	-3.78577	
7.55256	11.3045	47.8162	-0.500593	-3.75193	
7.49138	11.3878	47.8298	-0.497943	-3.89638	
7.54577	11.4086	47.8298	-0.495587	-3.86282	
7.62734	11.4155	47.8365	-0.492937	-3.78818	
7.52537	11.4919	47.823	-0.490581	-3.96648	
7.51857	11.4849	47.7959	-0.487342	-3.96634	
7.49818	11.5821	47.8433	-0.484397	-4.08389	
7.38941	11.5543	47.8501	-0.481158	-4.1649	
7.37582	11.6584	47.8298	-0.479097	-4.28259	
7.49818	11.6653	47.8501	-0.476741	-4.16717	
7.34183	11.7	47.7755	-0.475269	-4.35822	
7.29424	11.7278	47.8298	-0.472324	-4.43356	
7.32143	11.7139	47.8298	-0.469379	-4.39249	
7.26705	11.825	47.823	-0.466435	-4.55791	
7.26025	11.825	47.8094	-0.462018	-4.5647	
7.26705	11.818	47.8162	-0.459073	-4.55097	
7.29424	11.825	47.8298	-0.454656	-4.53071	
7.25345	11.8597	47.8365	-0.449945	-4.6062	
7.16508	11.8735	47.8772	-0.444055	-4.70845	
7.16508	11.8735	47.8569	-0.438755	-4.70845	
7.17188	11.8943	47.8026	-0.434043	-4.72247	
7.16508	11.9499	47.823	-0.429626	-4.78479	
7.23306	11.9082	47.8298	-0.426387	-4.67517	
7.24665	11.9499	47.7687	-0.420792	-4.70321	
7.1039	11.9707	47.8298	-0.414314	-4.86679	
7.15828	11.929	47.7891	-0.406069	-4.77077	
7.1039	11.9568	47.8501	-0.399296	-4.85291	
7.17188	11.9707	47.8162	-0.392523	-4.79881	
7.17867	11.9568	47.8162	-0.387223	-4.77813	
7.11069	11.9499	47.8298	-0.381628	-4.83917	
7.14468	12.047	47.8026	-0.377506	-4.90233	
7.16508	12.0331	47.8298	-0.37515	-4.86806	
7.17867	12.047	47.8501	-0.373972	-4.86834	
7.12429	12.047	47.7891	-0.373678	-4.92273	
7.18547	12.0748	47.8433	-0.373972	-4.8893	
7.18547	12.054	47.8365	-0.374266	-4.86849	
7.12429	12.0262	47.8433	-0.375739	-4.90191	
7.12429	12.0193	47.7959	-0.376033	-4.89497	
7.1039	11.9915	47.8637	-0.376328	-4.88761	
7.11069	11.936	47.8433	-0.374266	-4.82529	
7.16508	11.9499	47.823	-0.371911	-4.78479	
7.16508	11.9221	47.8026	-0.370438	-4.75703	
7.12429	11.8388	47.8298	-0.366905	-4.71454	
7.17188	11.7694	47.823	-0.365432	-4.59756	
7.16508	11.7556	47.8433	-0.36396	-4.59048	
7.21946	11.7209	47.8365	-0.363666	-4.5014	
7.16508	11.6792	47.8026	-0.361899	-4.51415	
7.13109	11.6653	47.8162	-0.363371	-4.53426	
7.14468	11.5543	47.7959	-0.363666	-4.40963	
7.13109	11.5751	47.8365	-0.366021	-4.44404	
7.13109	11.5196	47.8298	-0.368672	-4.38853	
7.17188	11.4572	47.7823	-0.371322	-4.28528	
7.13109	11.4363	47.7959	-0.372794	-4.30525	
7.14468	11.3739	47.8501	-0.372794	-4.2292	
7.22626	11.2837	47.8569	-0.371027	-4.05741	
7.19227	11.2351	47.823	-0.368377	-4.04282	
7.14468	11.1449	47.7755	-0.365727	-4.0002	
7.13789	11.1171	47.8094	-0.361015	-3.97924	
7.21946	11.0685	47.8162	-0.356598	-3.84908	
7.20587	11.013	47.7891	-0.353654	-3.80716	
7.17867	11.0061	47.8433	-0.351887	-3.82742	
7.13789	10.9853	47.8162	-0.353948	-3.84739	
7.15148	11.0061	47.8162	-0.356598	-3.85461	
7.15828	10.9783	47.7687	-0.360426	-3.82005	
7.22626	11.02	47.823	-0.362488	-3.79371	
7.22626	11.0061	47.8569	-0.361899	-3.77983	
7.23986	11.0477	47.823	-0.363077	-3.80787	
7.18547	11.0616	47.8162	-0.365727	-3.87613	
7.26025	11.0685	47.8162	-0.369849	-3.8083	
7.26025	11.0963	47.7823	-0.374266	-3.83605	
7.21266	11.1588	47.8298	-0.376622	-3.9461	
7.20587	11.1379	47.8298	-0.377211	-3.93207	
7.16508	11.2004	47.8298	-0.376622	-4.03532	
7.12429	11.2212	47.7823	-0.375444	-4.09693	
7.12429	11.1865	47.8026	-0.37515	-4.06223	
7.11069	11.2559	47.7891	-0.373678	-4.14522	
7.06991	11.2143	47.8298	-0.372205	-4.14437	
6.98833	11.2143	47.7959	-0.371616	-4.22595	
6.93395	11.2837	47.7823	-0.369849	-4.34972	
6.96114	11.2559	47.8094	-0.366316	-4.29477	
6.93395	11.2629	47.8094	-0.362488	-4.32891	
6.94074	11.2767	47.7891	-0.359543	-4.33599	
6.89316	11.2629	47.7891	-0.357776	-4.36969	
6.93395	11.2767	47.8094	-0.356893	-4.34279	
6.93395	11.2767	47.7823	-0.354243	-4.34279	
7.00872	11.2767	47.8094	-0.352181	-4.26801	
7.00872	11.3045	47.7959	-0.349237	-4.29577	
6.98153	11.3808	47.7959	-0.348942	-4.39929	
7.01552	11.2975	47.7891	-0.349237	-4.28203	
6.98833	11.4294	47.7823	-0.35012	-4.44107	
6.96114	11.3531	47.8026	-0.35012	-4.39193	
6.99513	11.4155	47.7959	-0.349237	-4.42039	
7.03592	11.4294	47.8298	-0.34747	-4.39348	
6.98833	11.4849	47.7959	-0.345114	-4.49659	
7.02232	11.4572	47.7687	-0.34217	-4.43484	
7.03592	11.471	47.7959	-0.339519	-4.43512	
6.96794	11.4849	47.7823	-0.337164	-4.51698	
6.99513	11.5127	47.7552	-0.334808	-4.51755	
6.96114	11.5196	47.7959	-0.332747	-4.55848	
6.90675	11.478	47.7891	-0.331863	-4.57122	
6.87956	11.4849	47.7823	-0.330685	-4.60536	
6.83198	11.5543	47.7959	-0.331863	-4.72234	
6.81838	11.5335	47.8298	-0.33098	-4.71511	
6.79799	11.5335	47.8026	-0.329213	-4.73551	
6.764	11.5543	47.762	-0.326857	-4.79032	
6.67562	11.6029	47.7755	-0.324796	-4.92727	
6.67562	11.589	47.7755	-0.322735	-4.91339	
6.7368	11.6098	47.7687	-0.320379	-4.87302	
6.7572	11.6029	47.8162	-0.318023	-4.84569	
6.68922	11.6376	47.7552	-0.315667	-4.94837	
6.64163	11.6931	47.7687	-0.312134	-5.05147	
6.64843	11.6862	47.7687	-0.310073	-5.03773	
6.764	11.6931	47.762	-0.307128	-4.92911	
6.72321	11.7209	47.7755	-0.305067	-4.99765	
6.65523	11.7209	47.7959	-0.302711	-5.06563	
6.62124	11.7764	47.7687	-0.300061	-5.15514	
6.57365	11.7833	47.8094	-0.296233	-5.20966	
6.58045	11.7833	47.7823	-0.290638	-5.20287	
6.59405	11.8735	47.7687	-0.285337	-5.27948	
6.56006	11.9013	47.7823	-0.278859	-5.34123	
6.52607	11.8458	47.7416	-0.272381	-5.31971	
6.60084	11.8805	47.7552	-0.266197	-5.27963	
6.51247	11.9013	47.7891	-0.260013	-5.38882	
6.53966	11.9984	47.7755	-0.25648	-5.45878	
6.60084	11.9776	47.7213	-0.253535	-5.37678	
6.60084	12.0193	47.7552	-0.250885	-5.41842	
6.60764	12.0817	47.7213	-0.250001	-5.47407	
6.56006	12.0609	47.7687	-0.249118	-5.50084	
6.60764	12.1372	47.7687	-0.249707	-5.52959	
6.55326	12.1442	47.7213	-0.250885	-5.59091	
6.63483	12.2205	47.7145	-0.250885	-5.58567	
6.58725	12.2066	47.762	-0.250885	-5.61938	
6.49887	12.2691	47.7416	-0.250296	-5.77021	
6.62124	12.3038	47.7484	-0.248529	-5.68254	
6.54646	12.3524	47.7077	-0.246762	-5.8059	
6.51247	12.3871	47.7484	-0.245584	-5.87459	
6.53966	12.4287	47.7145	-0.241756	-5.88903	
6.55326	12.4079	47.7281	-0.239106	-5.85462	
6.49208	12.4287	47.762	-0.235572	-5.93662	
6.47848	12.4703	47.7755	-0.233511	-5.99185	
6.48528	12.5467	47.7348	-0.230272	-6.06139	
6.46488	12.6091	47.7281	-0.227622	-6.14424	
6.45129	12.6299	47.7281	-0.224677	-6.17865	
6.4037	12.623	47.6806	-0.22026	-6.2193	
6.4173	12.6993	47.7348	-0.216432	-6.28204	
6.49887	12.6993	47.7009	-0.21231	-6.20046	
6.51247	12.734	47.7687	-0.210248	-6.22156	
6.49208	12.852	47.7009	-0.208187	-6.35993	
6.49208	12.8381	47.7145	-0.206126	-6.34605	
6.47848	12.8798	47.7416	-0.205242	-6.40128	
6.49208	12.8728	47.6806	-0.204653	-6.38075	
6.49208	12.9422	47.7009	-0.204064	-6.45014	
6.51247	12.963	47.7213	-0.204359	-6.45057	
6.49208	12.9769	47.7145	-0.204653	-6.48484	
6.43769	12.9839	47.7145	-0.205242	-6.54616	
6.45129	12.9492	47.6738	-0.204948	-6.49787	
6.51247	13.0394	47.7348	-0.204359	-6.5269	
6.4241	13.0741	47.6942	-0.20377	-6.64997	
6.4105	13.0602	47.7077	-0.202298	-6.64969	
6.4037	13.0463	47.6874	-0.200825	-6.64261	
6.46488	13.0949	47.7009	-0.198764	-6.63	
6.4173	13.1018	47.7213	-0.196703	-6.68453	
6.4241	13.1018	47.6942	-0.194347	-6.67773	
6.43769	13.1365	47.7009	-0.193169	-6.69883	
6.4105	13.0741	47.6738	-0.191991	-6.66357	
6.4105	13.1504	47.7009	-0.190224	-6.7399	
6.39011	13.1435	47.6399	-0.189047	-6.75336	
6.3969	13.1226	47.6806	-0.188752	-6.72574	
6.4173	13.1296	47.6874	-0.189341	-6.71229	
6.45129	13.1435	47.6942	-0.18993	-6.69218	
6.4105	13.2129	47.6399	-0.188752	-6.80236	
6.4173	13.1712	47.6806	-0.189636	-6.75392	
6.43769	13.2406	47.6399	-0.188752	-6.80292	
6.4105	13.1712	47.6264	-0.189047	-6.76072	
6.34932	13.1851	47.6535	-0.189047	-6.83578	
6.39011	13.1851	47.6603	-0.189636	-6.79499	
6.36291	13.1643	47.6467	-0.189047	-6.80137	
6.33572	13.2753	47.7009	-0.187869	-6.93959	
6.34252	13.2267	47.6535	-0.185807	-6.88422	
6.29493	13.2059	47.6603	-0.184041	-6.91099	
6.25415	13.2198	47.5789	-0.181685	-6.96565	
6.22016	13.1504	47.6467	-0.179035	-6.93025	
6.20656	13.1365	47.6196	-0.175796	-6.92996	
6.13178	13.0949	47.606	-0.172556	-6.9631	
6.16577	13.0463	47.6399	-0.168434	-6.88054	
6.11139	12.9977	47.6264	-0.164311	-6.88635	
6.13858	12.97	47.6535	-0.160778	-6.8314	
6.18617	12.9006	47.6128	-0.156655	-6.71441	
6.14538	12.852	47.5993	-0.154299	-6.70663	
6.15897	12.8173	47.6467	-0.151355	-6.65833	
6.17257	12.7687	47.5654	-0.149294	-6.59616	
6.17257	12.7202	47.5993	-0.148999	-6.54758	
6.12498	12.6299	47.5654	-0.147232	-6.50495	
6.15218	12.5536	47.6264	-0.146938	-6.40143	
6.17257	12.512	47.5789	-0.146938	-6.3394	
6.17937	12.4356	47.5925	-0.146938	-6.25626	
6.20656	12.3662	47.6128	-0.14576	-6.15968	
6.25415	12.2552	47.5857	-0.144877	-6.00106	
6.24055	12.2066	47.5925	-0.144877	-5.96608	
6.27454	12.165	47.6264	-0.143404	-5.89045	
6.26094	12.0887	47.5789	-0.142521	-5.82771	
6.32892	11.9846	47.545	-0.141637	-5.65564	
6.34252	11.9915	47.5789	-0.141637	-5.64898	
6.3969	11.8943	47.5247	-0.14046	-5.49744	
6.36971	11.8597	47.5586	-0.140754	-5.48994	
6.38331	11.8943	47.5857	-0.140754	-5.51104	
6.44449	11.8388	47.5925	-0.139576	-5.39434	
6.45129	11.8666	47.6128	-0.140754	-5.4153	
6.43089	11.8527	47.5586	-0.141343	-5.42182	
6.48528	11.8874	47.5654	-0.141932	-5.40213	
6.47848	11.8943	47.5721	-0.143404	-5.41587	
6.44449	11.929	47.545	-0.144288	-5.48456	
6.4241	11.9221	47.5654	-0.146054	-5.49801	
6.45129	11.8943	47.545	-0.146938	-5.44306	
6.4173	11.8943	47.5179	-0.147527	-5.47705	
6.37651	11.936	47.5179	-0.14841	-5.55948	
6.30173	11.8597	47.5518	-0.149588	-5.55792	
6.31533	11.9082	47.5382	-0.149588	-5.5929	
6.22695	11.8666	47.5179	-0.149588	-5.63964	
6.20656	11.8666	47.5179	-0.148705	-5.66003	
6.19976	11.9013	47.5586	-0.146349	-5.70153	
6.13858	11.8388	47.4772	-0.143993	-5.70025	
6.13178	11.8874	47.484	-0.141343	-5.75563	
6.11819	11.8458	47.4298	-0.138693	-5.72759	
6.17937	11.8666	47.545	-0.136337	-5.68722	
6.23375	11.8388	47.4772	-0.133392	-5.60508	
6.28134	11.8597	47.4908	-0.13192	-5.57831	
6.28134	11.7972	47.4637	-0.131331	-5.51586	
6.33572	11.825	47.4704	-0.131626	-5.48923	
6.33572	11.8111	47.5247	-0.133687	-5.47535	
6.38331	11.8111	47.484	-0.135748	-5.42777	
6.45129	11.8319	47.4637	-0.139871	-5.38061	
6.44449	11.8319	47.4569	-0.143404	-5.3874	
6.37651	11.7972	47.4637	-0.146054	-5.42069	
6.4105	11.8111	47.4433	-0.149882	-5.40057	
6.4173	11.8111	47.4026	-0.151649	-5.39378	
6.37651	11.8388	47.4772	-0.15106	-5.46232	
6.26774	11.7694	47.4433	-0.150766	-5.5017	
6.26774	11.7625	47.4365	-0.148116	-5.49476	
6.18617	11.7486	47.4298	-0.145465	-5.56245	
6.0842	11.7486	47.423	-0.141343	-5.66442	
6.02301	11.707	47.4637	-0.137515	-5.68397	
5.95503	11.7278	47.4162	-0.131331	-5.77277	
5.83947	11.6723	47.4298	-0.125442	-5.83282	
5.79868	11.6515	47.3755	-0.118374	-5.85279	
5.7307	11.6515	47.3687	-0.111013	-5.92077	
5.64233	11.6445	47.3959	-0.103946	-6.0022	
5.64233	11.6376	47.4026	-0.0957005	-5.99526	
5.57435	11.6306	47.3484	-0.0880444	-6.0563	
5.53356	11.5959	47.3416	-0.0803882	-6.06239	
5.47238	11.5821	47.362	-0.0730265	-6.10969	
5.49957	11.5682	47.3687	-0.0665483	-6.06862	
5.50637	11.5682	47.3552	-0.0594811	-6.06182	
5.47917	11.5543	47.3281	-0.0538862	-6.07514	
5.3976	11.5474	47.3416	-0.0474079	-6.14977	
5.33642	11.5057	47.3213	-0.0415186	-6.16932	
5.34321	11.5266	47.2874	-0.0356292	-6.18334	
5.22765	11.5057	47.2671	-0.0291509	-6.27809	
5.18006	11.4988	47.2399	-0.0229671	-6.31873	
5.0645	11.4502	47.2467	-0.0164889	-6.38572	
4.89455	11.478	47.2738	-0.0105995	-6.58343	
4.74499	11.4572	47.2128	-0.0044157	-6.71217	
4.61583	11.478	47.1857	0.00176811	-6.86215	
4.58864	11.4225	47.1247	0.00854085	-6.83382	
4.40509	11.4225	47.1043	0.0176693	-7.01737	
4.20795	11.3739	47.1247	0.0262089	-7.16594	
4.09238	11.3669	47.0908	0.0371042	-7.27456	
3.99721	11.3461	47.0908	0.0491773	-7.34891	
3.75248	11.3808	47.0908	0.0630173	-7.62834	
3.51455	11.3184	47.0976	0.0756794	-7.80381	
3.22224	11.249	47.1043	0.0889304	-8.02673	
3.15426	11.2767	47.0366	0.101298	-8.12247	
3.26303	11.249	47.0027	0.112193	-7.98595	
3.0319	11.1935	47.023	0.121027	-8.16156	
2.88914	11.2282	46.9552	0.1278	-8.33902	
2.82116	11.1865	46.9349	0.1331	-8.36536	
2.90953	11.1102	46.9281	0.139579	-8.20065	
3.03869	11.0963	46.8467	0.145468	-8.05761	
3.05909	11.0408	46.7857	0.152535	-7.9817	
3.20864	11.0338	46.7654	0.161075	-7.8252	
3.25623	10.9645	46.6705	0.173442	-7.70822	
3.43978	10.9506	46.684	0.189638	-7.5108	
3.72529	10.8812	46.6501	0.209073	-7.15589	
3.82046	10.8465	46.5213	0.233219	-7.02602	
4.08559	10.8118	46.5281	0.260016	-6.7262	
4.35751	10.7493	46.4332	0.288579	-6.39182	
4.62943	10.7077	46.4264	0.319204	-6.07826	
4.86736	10.7008	46.3925	0.348061	-5.8334	
4.99652	10.5758	46.2908	0.376919	-5.57932	
5.30243	10.5758	46.3179	0.40401	-5.27341	
5.65592	10.4509	46.2366	0.431396	-4.79501	
5.82587	10.3815	46.2705	0.456425	-4.55566	
6.0774	10.3607	46.0603	0.479099	-4.28332	
6.37651	10.2983	46.1078	0.498829	-3.92175	
6.56006	10.3052	46.0332	0.516791	-3.74514	
6.70961	10.1942	45.9315	0.532103	-3.48455	
6.89996	10.1664	45.823	0.546238	-3.26645	
7.11749	10.1109	45.7688	0.560078	-2.9934	
7.20587	10.0276	45.6535	0.573623	-2.82175	
7.23306	9.90271	45.6061	0.586285	-2.66965	
7.20587	9.91658	45.5993	0.600125	-2.71072	
7.0903	9.79861	45.5315	0.611315	-2.70831	
7.00872	9.75004	45.484	0.62221	-2.74131	
6.97473	9.70146	45.4501	0.629867	-2.72673	
7.01552	9.63206	45.4298	0.636345	-2.61654	
7.12429	9.56267	45.301	0.641645	-2.43838	
7.22626	9.49327	45.2874	0.646062	-2.26701	
7.23306	9.42388	45.2129	0.649596	-2.19082	
7.28064	9.38918	45.1857	0.653129	-2.10854	
7.33503	9.28509	45.0501	0.657252	-1.95006	
7.45059	9.22263	44.9417	0.661375	-1.77204	
7.38941	9.1116	44.9756	0.665497	-1.72219	
7.4302	9.0769	44.8807	0.669325	-1.6467	
7.53217	9.0422	44.9146	0.67227	-1.51003	
7.49818	8.91729	44.7993	0.676981	-1.41911	
7.45739	8.79238	44.7722	0.68022	-1.33499	
7.49138	8.77156	44.6501	0.68346	-1.28018	
7.47099	8.68135	44.6501	0.687877	-1.21036	
7.33503	8.63277	44.5078	0.690821	-1.29774	
7.30784	8.56338	44.4874	0.695827	-1.25554	
7.4438	8.45234	44.4807	0.700539	-1.00855	
7.33503	8.36213	44.4196	0.704956	-1.0271	
7.45059	8.29967	44.3383	0.709962	-0.849081	
7.30784	8.15394	44.2841	0.714379	-0.846109	
7.21266	8.04291	44.2569	0.715557	-0.830249	
7.33503	7.93188	44.2298	0.715557	-0.596852	
7.28744	7.82085	44.162	0.71379	-0.533406	
7.26025	7.64042	44.1485	0.712023	-0.38017	
7.13789	7.55715	44.1552	0.711139	-0.41926	
7.12429	7.39754	44.0807	0.710256	-0.273247	
7.16508	7.22405	44.0129	0.709078	-0.0589705	
7.17867	7.06444	43.9519	0.7079	0.114235	
7.13109	6.95341	43.918	0.709373	0.177681	
7.13109	6.82156	43.8637	0.710551	0.309532	
7.0767	6.66195	43.8163	0.713495	0.414757	
7.04951	6.47458	43.7281	0.714968	0.574932	
7.11749	6.28721	43.7349	0.717029	0.83028	
7.17867	6.13454	43.6739	0.719974	1.04413	
7.13109	5.99575	43.64	0.724096	1.13534	
7.27385	5.83614	43.6468	0.729691	1.4377	
7.23986	5.60714	43.5586	0.732636	1.63272	
7.34183	5.48223	43.5858	0.734402	1.8596	
7.40981	5.27404	43.4569	0.735286	2.13576	
7.47099	5.14219	43.4366	0.736169	2.3288	
7.4166	4.92707	43.3892	0.738819	2.48954	
7.63414	4.80215	43.3756	0.740586	2.83199	
7.48458	4.60091	43.3553	0.743825	2.88368	
7.58655	4.48988	43.2739	0.749126	3.09668	
7.50498	4.35802	43.2197	0.758549	3.14695	
7.51178	4.25393	43.2197	0.771211	3.25784	
7.46419	4.1082	43.1519	0.784167	3.35599	
7.49138	4.00411	43.1044	0.795063	3.48727	
7.53897	3.89308	43.0366	0.804486	3.64589	
7.57296	3.78898	43.0434	0.812142	3.78397	
7.64774	3.69183	42.9959	0.81597	3.95591	
7.38261	3.55304	42.8536	0.817442	3.82957	
7.60695	3.53222	42.8739	0.816264	4.07473	
7.59335	3.41425	42.9146	0.813909	4.1791	
7.67493	3.30322	42.8129	0.813909	4.37171	
7.68173	3.16443	42.7587	0.814792	4.5173	
7.72251	3.12279	42.7248	0.815675	4.59972	
7.63414	2.9493	42.6841	0.81862	4.68484	
7.59335	2.89378	42.6027	0.819503	4.69957	
7.68173	2.76887	42.5417	0.820976	4.91285	
7.74971	2.65784	42.4739	0.822154	5.09187	
7.81089	2.53293	42.4265	0.825393	5.27796	
7.72931	2.47047	42.3519	0.82981	5.25884	
7.72251	2.33862	42.3315	0.833638	5.38389	
7.70892	2.24147	42.3044	0.838938	5.46745	
7.7633	2.1235	42.2231	0.842472	5.6398	
7.81089	1.98471	42.2027	0.845122	5.82618	
7.91286	1.92225	42.1553	0.848361	5.99061	
7.79049	1.81816	42.0875	0.851011	5.97234	
8.00123	1.69325	42.0468	0.854251	6.30799	
7.98084	1.61691	42.0265	0.856312	6.36393	
8.06921	1.49894	41.9451	0.858962	6.57027	
7.97404	1.34627	41.8638	0.858668	6.62777	
7.94005	1.27687	41.8434	0.858668	6.66317	
8.20517	1.18666	41.8366	0.857784	7.01851	
8.05562	1.04093	41.7485	0.856606	7.01468	
7.94685	0.895201	41.701	0.853956	7.05165	
8.06921	0.818866	41.701	0.852484	7.25035	
7.91966	0.714773	41.6536	0.84895	7.20488	
8.01483	0.631499	41.6129	0.846005	7.38333	
8.07601	0.541285	41.5451	0.843944	7.53472	
7.89246	0.381676	41.5248	0.842472	7.51079	
7.96724	0.360857	41.4977	0.843061	7.60638	
8.07601	0.242886	41.4299	0.844828	7.83312	
8.04202	0.138793	41.3553	0.850422	7.90323	
8.07601	0.0346998	41.3282	0.856901	8.04131	
7.97404	-0.00693738	41.2672	0.861612	7.98098	
7.92645	-0.0624536	41.2943	0.862201	7.98891	
7.94005	-0.187365	41.2265	0.857784	8.12741	
8.1032	-0.25676	41.1655	0.852189	8.35996	
8.14399	-0.374732	41.0909	0.845711	8.51872	
8.06921	-0.416369	41.0705	0.839233	8.48558	
7.96724	-0.562099	41.0095	0.831871	8.52934	
8.15079	-0.631495	41.0095	0.825393	8.78228	
8.19837	-0.687011	40.9689	0.820681	8.88538	
8.15079	-0.832741	40.9689	0.819209	8.98353	
8.07601	-0.985411	40.9011	0.821565	9.06142	
8.15079	-1.09644	40.8604	0.825687	9.24723	
8.00803	-1.24217	40.8265	0.829221	9.2502	
8.05562	-1.43648	40.7994	0.832165	9.4921	
8.08961	-1.55445	40.718	0.83511	9.64406	
8.14399	-1.69324	40.7044	0.836288	9.83723	
8.04202	-1.83203	40.7316	0.838938	9.87405	
8.04202	-1.9847	40.6367	0.841588	10.0267	
8.14399	-2.15819	40.596	0.84365	10.3022	
8.21877	-2.29698	40.5078	0.844239	10.5157	
8.21197	-2.33168	40.4807	0.84365	10.5436	
8.08281	-2.49129	40.3994	0.841294	10.5741	
8.17118	-2.60926	40.4265	0.836288	10.7804	
8.25276	-2.65784	40.3994	0.830399	10.9106	
8.26635	-2.73417	40.3316	0.824804	11.0005	
8.18478	-2.78969	40.2367	0.818914	10.9745	
8.22557	-2.85908	40.2231	0.812142	11.0846	
8.25956	-2.97011	40.1621	0.803897	11.2297	
8.24596	-3.01175	40.0807	0.794768	11.2577	
8.17118	-3.03951	40.0265	0.786229	11.2107	
8.0964	-3.07421	39.9994	0.779456	11.1706	
8.08281	-3.12972	39.9519	0.776217	11.2125	
8.19158	-3.19218	39.9316	0.775922	11.3838	
8.13719	-3.213	39.8909	0.777984	11.3502	
8.17118	-3.26851	39.7824	0.780634	11.4397	
8.24596	-3.31015	39.7689	0.782989	11.5561	
8.19837	-3.30321	39.735	0.784756	11.5016	
8.15079	-3.38649	39.6875	0.785345	11.5373	
8.27995	-3.34485	39.5858	0.786523	11.6248	
8.30034	-3.32403	39.6129	0.786818	11.6244	
8.40911	-3.35873	39.4977	0.78829	11.7678	
8.30034	-3.42118	39.5655	0.787701	11.7215	
8.26635	-3.39343	39.4163	0.786818	11.6598	
8.25276	-3.4073	39.4367	0.78564	11.6601	
8.32074	-3.42812	39.3079	0.780634	11.7489	
8.37512	-3.42812	39.2943	0.7771	11.8032	
8.35473	-3.4767	39.2333	0.7718	11.8314	
8.4431	-3.44894	39.1858	0.76591	11.892	
8.29355	-3.45588	39.1452	0.760316	11.7494	
8.33433	-3.49058	39.1113	0.753543	11.8249	
8.37512	-3.45588	39.0367	0.747948	11.831	
8.38192	-3.46282	39.0231	0.742059	11.8447	
8.4431	-3.4767	38.9824	0.737053	11.9198	
8.38192	-3.46282	38.9079	0.731752	11.8447	
8.32754	-3.40037	38.8536	0.727041	11.7279	
8.4363	-3.45588	38.8536	0.723213	11.8922	
8.29355	-3.37955	38.7858	0.721446	11.6731	
8.23916	-3.35873	38.7045	0.720857	11.5979	
8.34113	-3.36567	38.6706	0.722624	11.7068	
8.37512	-3.25464	38.6774	0.723507	11.6298	
8.35473	-3.20606	38.6163	0.723507	11.5608	
8.36153	-3.18524	38.5079	0.723802	11.5468	
8.42271	-3.08809	38.4469	0.723213	11.5108	
8.40231	-3.04645	38.4672	0.722035	11.4488	
8.35473	-3.05339	38.4197	0.719385	11.4081	
8.42951	-3.07421	38.3452	0.715851	11.5037	
8.53148	-3.02563	38.3791	0.712906	11.5571	
8.49749	-3.02563	38.2367	0.712317	11.5231	
8.64024	-2.96318	38.2299	0.711434	11.6034	
8.50428	-3.01175	38.2096	0.712906	11.516	
8.54507	-3.04645	38.1282	0.711728	11.5915	
8.68103	-3.05339	38.0943	0.709373	11.7344	
8.57226	-3.03951	37.9791	0.704661	11.6118	
8.59266	-3.13666	38.0197	0.698183	11.7293	
8.61305	-3.09503	37.9384	0.690232	11.7081	
8.61985	-3.11584	37.9452	0.683754	11.7357	
8.69463	-3.16442	37.8299	0.677865	11.859	
8.83059	-3.19218	37.8028	0.67227	12.0228	
8.75581	-3.1436	37.7825	0.666086	11.8994	
8.87137	-3.213	37.6672	0.65843	12.0844	
8.7762	-3.213	37.6808	0.650774	11.9892	
8.83738	-3.25464	37.5045	0.643412	12.092	
8.85778	-3.28933	37.552	0.634284	12.1471	
8.83059	-3.29627	37.5723	0.626922	12.1269	
8.87137	-3.33791	37.4774	0.621916	12.2093	
8.86458	-3.36567	37.5045	0.618382	12.2302	
8.95295	-3.35179	37.4706	0.616027	12.3047	
8.89857	-3.37955	37.4164	0.613082	12.2781	
8.88497	-3.442	37.3757	0.608959	12.327	
9.03453	-3.42812	37.3147	0.603953	12.4627	
9.04132	-3.46282	37.3147	0.59777	12.5041	
9.07531	-3.49058	37.2401	0.590113	12.5659	
9.17049	-3.46976	37.2333	0.582752	12.6402	
9.06852	-3.57385	37.1655	0.575096	12.6424	
9.1365	-3.52528	37.1316	0.568028	12.6618	
9.1365	-3.55304	37.0638	0.560961	12.6895	
9.06852	-3.5461	37.0706	0.552716	12.6146	
9.14329	-3.58773	37.0435	0.546532	12.731	
9.1365	-3.57385	36.9621	0.539465	12.7104	
9.15009	-3.60855	36.9689	0.534459	12.7586	
9.03453	-3.57385	36.9215	0.529748	12.6084	
9.1297	-3.5461	36.9079	0.526214	12.6758	
9.08891	-3.58079	36.8876	0.523269	12.6697	
9.06172	-3.61549	36.8537	0.52003	12.6772	
9.04132	-3.60161	36.8333	0.515613	12.6429	
9.07531	-3.58079	36.7384	0.510902	12.6561	
9.07531	-3.56691	36.7655	0.50619	12.6422	
9.1093	-3.56691	36.7655	0.501479	12.6762	
9.14329	-3.55997	36.7994	0.497356	12.7033	
9.15009	-3.58079	36.7248	0.492939	12.7309	
9.1229	-3.55304	36.6503	0.488228	12.6759	
9.14329	-3.5461	36.6232	0.484105	12.6894	
9.17728	-3.53222	36.6435	0.48175	12.7095	
9.14329	-3.52528	36.5282	0.480572	12.6686	
9.07531	-3.48364	36.4943	0.479983	12.559	
9.04812	-3.48364	36.4672	0.479983	12.5318	
8.99374	-3.44894	36.474	0.479394	12.4427	
9.07531	-3.41424	36.413	0.479099	12.4896	
9.06852	-3.41424	36.3994	0.477627	12.4828	
9.01413	-3.37955	36.3927	0.47586	12.3937	
9.02773	-3.40037	36.3384	0.472916	12.4281	
8.98014	-3.33097	36.3113	0.469676	12.3111	
9.07531	-3.34485	36.2571	0.465259	12.4202	
9.10251	-3.33791	36.2164	0.461726	12.4404	
9.04132	-3.35179	36.2028	0.458781	12.3931	
9.1365	-3.25464	36.1147	0.457309	12.3911	
9.08891	-3.31015	36.0944	0.457014	12.3991	
9.1297	-3.2477	36.1079	0.456131	12.3774	
9.15009	-3.20606	36.0605	0.455248	12.3562	
9.15009	-3.26851	36.0401	0.453775	12.4186	
9.09571	-3.18524	35.9723	0.452303	12.2809	
9.10251	-3.15748	35.9723	0.449358	12.26	
9.1229	-3.13666	35.9249	0.446708	12.2596	
9.21127	-3.08809	35.9384	0.443763	12.2994	
9.18408	-3.08809	35.8435	0.441997	12.2722	
9.22487	-3.09503	35.9045	0.439052	12.3199	
9.19768	-3.00481	35.8571	0.436696	12.2025	
9.25886	-2.97011	35.8232	0.432868	12.229	
9.30645	-2.92154	35.7689	0.430807	12.228	
9.34044	-2.92154	35.6808	0.426684	12.262	
9.40162	-2.85908	35.7283	0.423151	12.2607	
9.456	-2.86602	35.5994	0.416967	12.322	
9.48319	-2.78969	35.552	0.410489	12.2729	
9.51718	-2.72029	35.5181	0.403127	12.2375	
9.60556	-2.68559	35.5249	0.395765	12.2912	
9.57837	-2.64396	35.4706	0.386342	12.2223	
9.63275	-2.58844	35.3622	0.376625	12.2212	
9.62595	-2.57456	35.3554	0.367202	12.2005	
9.65314	-2.57456	35.3011	0.357779	12.2277	
9.60556	-2.47047	35.2672	0.348356	12.076	
9.64635	-2.47047	35.2401	0.339816	12.1168	
9.65314	-2.44271	35.1588	0.330393	12.0959	
9.64635	-2.3525	35.1588	0.322148	11.9988	
9.68034	-2.34556	35.1181	0.314492	12.0259	
9.74832	-2.30392	35.0367	0.306836	12.0522	
9.66674	-2.25534	35.0367	0.300358	11.9221	
9.71433	-2.22065	34.9893	0.292996	11.935	
9.73472	-2.18595	34.9554	0.285929	11.9207	
9.72792	-2.18595	34.8537	0.2768	11.9139	
9.74832	-2.09573	34.8944	0.269144	11.8441	
9.8027	-2.10267	34.7859	0.261194	11.9054	
9.85708	-2.04716	34.8266	0.254421	11.9042	
9.89107	-1.9847	34.7317	0.246765	11.8758	
9.86388	-1.96388	34.7045	0.240581	11.8278	
9.85029	-1.92919	34.63	0.233808	11.7795	
9.85708	-1.85979	34.63	0.227624	11.7169	
9.91147	-1.81815	34.569	0.221735	11.7296	
9.93866	-1.81121	34.5012	0.215846	11.7499	
9.95905	-1.721	34.4401	0.209662	11.6801	
9.93866	-1.70712	34.3995	0.203478	11.6458	
9.94546	-1.63773	34.4062	0.197589	11.5832	
9.99984	-1.63773	34.3995	0.190522	11.6376	
7.89246	-1.56833	34.3317	0.183454	9.46079	
7.31463	-1.56139	34.2435	0.17462	8.87602	
8.56547	-1.492	34.2368	0.164608	10.0575	
8.0964	-1.492	34.1893	0.150474	9.5884	
7.26025	-1.37402	34.1622	0.13045	8.63427	
6.81158	-1.38096	34.0808	0.103948	8.19255	
6.89996	-1.33933	34.0198	0.070379	8.23928	
7.32143	-1.26299	33.9995	0.029448	8.58442	
7.62734	-1.26993	33.9927	-0.0206114	8.89727	
7.53217	-1.23523	33.8978	-0.0800938	8.7674	
7.32823	-1.22135	33.8435	-0.144582	8.54958	
7.39621	-1.1589	33.769	-0.207009	8.55511	
7.52537	-1.14502	33.7351	-0.263252	8.67039	
7.56616	-1.06868	33.7012	-0.309484	8.63484	
7.32823	-1.03399	33.6605	-0.345409	8.36222	
7.31463	-0.964592	33.5724	-0.370438	8.27923	
7.33503	-1.00623	33.552	-0.384573	8.34126	
7.21946	-0.916015	33.4842	-0.390757	8.13548	
7.03592	-0.881318	33.4232	-0.38899	7.91723	
7.00193	-0.85356	33.43	-0.382512	7.85549	
7.00872	-0.784164	33.3758	-0.373972	7.79289	
7.0971	-0.756406	33.308	-0.364844	7.8535	
7.0971	-0.714769	33.2198	-0.357482	7.81187	
6.98153	-0.680071	33.2266	-0.350415	7.6616	
6.91355	-0.652313	33.1656	-0.343642	7.56587	
6.98153	-0.562099	33.1113	-0.33893	7.54363	
7.03592	-0.527402	33.0503	-0.335691	7.56332	
7.15148	-0.492704	33.0097	-0.337458	7.64419	
7.14468	-0.471886	32.9554	-0.340697	7.61657	
7.1039	-0.437188	32.9351	-0.344231	7.54108	
7.11749	-0.374732	32.8402	-0.348353	7.49222	
7.16508	-0.305337	32.8334	-0.350415	7.47041	
7.17867	-0.284518	32.7317	-0.35277	7.46319	
7.19907	-0.222063	32.691	-0.353654	7.42113	
7.21266	-0.138788	32.6639	-0.353654	7.35145	
7.22626	-0.0902117	32.6164	-0.354537	7.31647	
7.24665	-0.0832722	32.5554	-0.356009	7.32993	
7.17867	2.14603E-006	32.4673	-0.356893	7.17867	
7.23986	0.00694167	32.4741	-0.357482	7.23291	
7.17867	0.111035	32.3588	-0.357482	7.06764	
7.21266	0.104095	32.3859	-0.357482	7.10857	
7.34862	0.159611	32.3181	-0.35866	7.18901	
7.25345	0.201248	32.2232	-0.360721	7.0522	
7.16508	0.31922	32.169	-0.362488	6.84586	
7.27385	0.284523	32.1012	-0.36396	6.98932	
7.31463	0.381676	32.047	-0.365727	6.93296	
7.33503	0.333099	32.0402	-0.368672	7.00193	
7.32143	0.374737	32.0131	-0.368966	6.9467	
7.24665	0.346978	31.9249	-0.369849	6.89968	
7.30784	0.395555	31.891	-0.371322	6.91228	
7.28744	0.312281	31.7826	-0.371911	6.97516	
7.26025	0.291462	31.8165	-0.373678	6.96879	
7.34862	0.249825	31.7215	-0.375739	7.0988	
7.39621	0.284523	31.6809	-0.378683	7.11169	
7.32823	0.235946	31.647	-0.381628	7.09228	
7.36902	0.270644	31.5792	-0.384278	7.09837	
7.51857	0.229006	31.4978	-0.387223	7.28957	
7.55936	0.242886	31.5046	-0.391934	7.31648	
7.60015	0.208188	31.4232	-0.395468	7.39196	
7.7769	0.229006	31.3961	-0.40018	7.54789	
7.83128	0.222067	31.3283	-0.40548	7.60921	
7.87207	0.242886	31.2809	-0.411075	7.62918	
8.04202	0.229006	31.2741	-0.418731	7.81301	
8.11	0.256765	31.1927	-0.427859	7.85323	
8.07601	0.305341	31.186	-0.43846	7.77067	
8.11	0.305341	31.1317	-0.447883	7.80466	
8.19158	0.312281	31.0775	-0.457306	7.87929	
8.15759	0.353918	30.9893	-0.467318	7.80367	
8.23916	0.402495	31.0232	-0.476741	7.83667	
8.23236	0.374737	30.9826	-0.485281	7.85763	
8.17798	0.409434	30.908	-0.493526	7.76855	
8.15079	0.444132	30.8402	-0.500593	7.70666	
8.27315	0.492708	30.786	-0.508249	7.78044	
8.21877	0.575983	30.786	-0.517377	7.64278	
8.40231	0.638439	30.6978	-0.526506	7.76387	
8.4431	0.721713	30.6978	-0.534162	7.72139	
8.32754	0.721713	30.6233	-0.54064	7.60582	
8.21877	0.742531	30.5622	-0.547119	7.47624	
8.27315	0.818866	30.508	-0.553891	7.45429	
8.31394	0.832745	30.4944	-0.560664	7.48119	
8.19837	0.881322	30.4877	-0.566554	7.31705	
8.21197	0.922959	30.3927	-0.571265	7.28901	
8.26635	0.91602	30.4199	-0.575682	7.35033	
8.23236	0.950717	30.3588	-0.579805	7.28165	
8.18478	0.978475	30.2504	-0.583633	7.2063	
8.25956	1.06175	30.2029	-0.586577	7.19781	
8.25276	1.08257	30.1622	-0.587461	7.17019	
8.30034	1.14502	30.1758	-0.586577	7.15532	
8.34793	1.18666	30.1351	-0.585988	7.16127	
8.35473	1.26994	30.108	-0.587461	7.08479	
8.30034	1.30463	30.0199	-0.589227	6.99571	
8.35473	1.39485	29.9724	-0.593056	6.95988	
8.4363	1.45036	29.9521	-0.597767	6.98594	
8.34793	1.54752	29.8639	-0.603067	6.80041	
8.4567	1.5614	29.8572	-0.608662	6.8953	
8.57906	1.67243	29.8029	-0.614257	6.90663	
8.61985	1.76958	29.8029	-0.618674	6.85027	
8.52468	1.84592	29.7351	-0.622797	6.67876	
8.52468	1.92919	29.6741	-0.625741	6.59549	
8.42271	1.99165	29.6063	-0.628097	6.43106	
8.49749	2.06104	29.5589	-0.629864	6.43644	
8.54507	2.13044	29.525	-0.631336	6.41463	
8.4431	2.20677	29.5046	-0.633398	6.23633	
8.4499	2.34556	29.4775	-0.635164	6.10434	
8.65384	2.41496	29.4165	-0.63752	6.23888	
8.57906	2.49129	29.4301	-0.641054	6.08777	
8.58586	2.62314	29.3487	-0.644293	5.96272	
8.51788	2.74111	29.2945	-0.650477	5.77676	
8.53148	2.76193	29.2741	-0.656955	5.76954	
8.66064	2.87297	29.2199	-0.663728	5.78767	
8.58586	2.99788	29.1792	-0.668145	5.58798	
8.72182	3.10197	29.1453	-0.671384	5.61985	
8.61305	3.16443	29.0911	-0.674328	5.44863	
8.73542	3.33097	29.0979	-0.67639	5.40444	
8.81699	3.46283	29.0436	-0.679923	5.35417	
8.74901	3.53222	29.0165	-0.681396	5.21679	
8.69463	3.63631	28.969	-0.682279	5.05831	
8.75581	3.78204	28.9419	-0.680512	4.97377	
8.75581	3.8792	28.9351	-0.678451	4.87661	
8.73542	3.96941	28.9012	-0.678451	4.766	
8.76261	4.06656	28.7996	-0.677862	4.69604	
8.81699	4.1776	28.7792	-0.67904	4.63939	
8.83738	4.32333	28.7657	-0.681985	4.51406	
8.69463	4.43436	28.7182	-0.685813	4.26027	
8.71502	4.53151	28.7114	-0.69023	4.18351	
8.67423	4.63561	28.6911	-0.69288	4.03863	
8.7762	4.74664	28.664	-0.693763	4.02957	
8.73542	4.82991	28.6504	-0.69288	3.9055	
8.74901	4.92707	28.6233	-0.692291	3.82195	
8.80339	5.07973	28.5284	-0.691408	3.72366	
8.7898	5.16301	28.5216	-0.691113	3.62679	
8.75581	5.2671	28.4741	-0.689935	3.48871	
8.66744	5.41283	28.4606	-0.691997	3.2546	
8.7762	5.50999	28.4606	-0.692585	3.26622	
8.7966	5.64184	28.447	-0.696119	3.15476	
8.64024	5.69041	28.3385	-0.697002	2.94983	
8.76941	5.84308	28.3657	-0.697297	2.92632	
8.85098	5.91942	28.2911	-0.697002	2.93156	
8.74221	6.04433	28.2911	-0.697886	2.69788	
8.75581	6.14148	28.2504	-0.698769	2.61433	
8.72862	6.21782	28.1894	-0.699358	2.5108	
8.64704	6.31497	28.1758	-0.700242	2.33207	
8.67423	6.41212	28.1555	-0.699064	2.26211	
8.68103	6.52316	28.047	-0.69818	2.15787	
8.63345	6.70358	28.0945	-0.697002	1.92986	
8.56547	6.73134	28.0538	-0.69553	1.83412	
8.69463	6.80074	28.0538	-0.696414	1.89389	
8.71502	6.95341	28.0402	-0.695825	1.76161	
8.61985	7.04362	28.0335	-0.695236	1.57623	
8.59946	7.13383	27.9589	-0.694941	1.46562	
8.53827	7.25181	28.0199	-0.696119	1.28647	
8.63345	7.31426	27.9114	-0.696708	1.31918	
8.51788	7.41142	27.9047	-0.697886	1.10646	
8.57906	7.52245	27.9047	-0.697886	1.05661	
8.54507	7.59184	27.8301	-0.696414	0.953228	
8.59266	7.71675	27.8165	-0.694058	0.875902	
8.53827	7.80003	27.8436	-0.693174	0.738244	
8.54507	7.93188	27.8165	-0.69288	0.613191	
8.51788	8.02209	27.7758	-0.692291	0.495785	
8.51788	8.09843	27.7013	-0.691702	0.419451	
8.64024	8.18864	27.6877	-0.689052	0.451601	
8.52468	8.30661	27.7148	-0.686991	0.218063	
8.58586	8.38295	27.6741	-0.685518	0.20291	
8.57226	8.48704	27.6606	-0.684635	0.0852211	
8.51108	8.52868	27.6606	-0.685224	-0.0175981	
8.4567	8.61195	27.5928	-0.686107	-0.155256	
8.54507	8.70911	27.6267	-0.685224	-0.164036	
8.4635	8.7438	27.6064	-0.685813	-0.280309	
8.4635	8.85484	27.5725	-0.685518	-0.391342	
8.4363	8.95199	27.5657	-0.685518	-0.515687	
8.39552	9.0422	27.5182	-0.683163	-0.646689	
8.49749	9.12548	27.4301	-0.68169	-0.627993	
8.55187	9.19487	27.464	-0.679334	-0.643005	
8.40911	9.31285	27.4233	-0.676095	-0.903734	
8.47029	9.32672	27.3894	-0.672267	-0.856431	
8.53827	9.41694	27.3691	-0.66785	-0.878665	
8.40911	9.46552	27.3555	-0.663433	-1.0564	
8.4635	9.50715	27.3352	-0.661077	-1.04366	
8.47029	9.63206	27.2877	-0.660194	-1.16177	
8.4499	9.73616	27.2606	-0.660194	-1.28626	
8.4567	9.7431	27.2131	-0.659605	-1.2864	
8.47029	9.84719	27.2199	-0.657544	-1.3769	
8.53827	9.9374	27.2131	-0.657838	-1.39913	
8.32754	10.0346	27.1928	-0.656955	-1.70702	
8.34113	10.0762	27.1521	-0.657838	-1.73506	
8.48389	10.1525	27.125	-0.657544	-1.66864	
8.30034	10.208	27.1182	-0.655777	-1.9077	
8.34113	10.2705	27.0775	-0.65401	-1.92937	
8.32074	10.333	27.064	-0.651655	-2.01222	
8.21877	10.4232	27.064	-0.649299	-2.2044	
8.23236	10.437	27.003	-0.647238	-2.20469	
8.26635	10.4995	26.9826	-0.646354	-2.23315	
8.13719	10.562	26.9826	-0.643409	-2.42477	
8.14399	10.5967	26.8877	-0.64017	-2.45267	
8.19837	10.6105	26.9148	-0.636342	-2.41216	
8.19158	10.6383	26.9148	-0.633692	-2.44672	
8.17118	10.673	26.8335	-0.63222	-2.50181	
8.18478	10.6591	26.8064	-0.631925	-2.47434	
8.0964	10.6452	26.7996	-0.631042	-2.54883	
8.02842	10.5758	26.8199	-0.629569	-2.54742	
8.14399	10.6591	26.7725	-0.627803	-2.51512	
8.15079	10.6869	26.7453	-0.627214	-2.53608	
8.19158	10.7077	26.7453	-0.626625	-2.51611	
8.19837	10.6661	26.6776	-0.623975	-2.46768	
8.15079	10.6452	26.6504	-0.619558	-2.49445	
8.25956	10.7008	26.664	-0.614552	-2.4412	
8.19837	10.6869	26.5759	-0.610135	-2.4885	
8.14399	10.673	26.5487	-0.60719	-2.529	
8.30714	10.6383	26.5894	-0.605129	-2.33115	
8.19837	10.5897	26.6098	-0.603067	-2.39135	
8.08961	10.5481	26.5487	-0.601006	-2.45848	
8.13719	10.5273	26.5013	-0.599828	-2.39007	
8.18478	10.5064	26.4809	-0.600123	-2.32167	
8.13039	10.4509	26.4335	-0.600712	-2.32053	
8.17798	10.4301	26.4267	-0.600712	-2.25213	
8.11	10.4579	26.4199	-0.600712	-2.34787	
8.17798	10.4232	26.3725	-0.601301	-2.24519	
8.13719	10.4093	26.3793	-0.60189	-2.2721	
8.1032	10.3607	26.3115	-0.602184	-2.25751	
8.14399	10.3954	26.3589	-0.600123	-2.25142	
8.06921	10.437	26.325	-0.597767	-2.36784	
7.98084	10.437	26.3047	-0.596	-2.45621	
8.13039	10.4787	26.2301	-0.594822	-2.34829	
7.98084	10.4856	26.2572	-0.593939	-2.50479	
7.92645	10.5064	26.2572	-0.59335	-2.57999	
7.97404	10.6175	26.2301	-0.590405	-2.64344	
7.96044	10.6314	26.203	-0.586283	-2.67091	
7.91286	10.6383	26.1352	-0.581571	-2.72544	
7.94005	10.6244	26.1623	-0.575682	-2.68437	
7.91286	10.6383	26.081	-0.572148	-2.72544	
7.96724	10.6522	26.081	-0.569793	-2.68493	
7.90606	10.6591	26.0674	-0.566259	-2.75305	
7.7837	10.6938	26.081	-0.565081	-2.91012	
7.80409	10.6591	26.0267	-0.564198	-2.85502	
7.7633	10.7146	25.986	-0.564787	-2.95133	
7.71572	10.6591	25.9454	-0.564787	-2.9434	
7.71572	10.6452	25.9318	-0.562431	-2.92952	
7.67493	10.6799	25.9318	-0.556542	-3.005	
7.72931	10.6591	25.925	-0.54918	-2.9298	
7.64094	10.6799	25.8437	-0.539757	-3.03899	
7.74971	10.6452	25.7759	-0.530923	-2.89553	
7.65453	10.6869	25.7827	-0.522383	-3.03234	
7.57296	10.7285	25.7623	-0.515022	-3.15555	
7.57976	10.7632	25.7284	-0.510016	-3.18345	
7.60015	10.7424	25.6945	-0.506482	-3.14224	
7.68173	10.7701	25.7013	-0.50501	-3.08842	
7.70892	10.8187	25.7081	-0.50236	-3.10981	
7.68852	10.8257	25.6064	-0.500004	-3.13714	
7.58655	10.8048	25.5657	-0.497354	-3.21829	
7.60015	10.8465	25.5589	-0.495881	-3.24633	
7.68173	10.9089	25.5182	-0.494409	-3.22721	
7.58655	10.8742	25.5047	-0.494409	-3.28769	
7.62054	10.9159	25.4776	-0.494704	-3.29533	
7.50498	10.9645	25.4843	-0.494115	-3.45948	
7.60695	10.9298	25.4233	-0.492937	-3.32281	
7.55256	10.9506	25.4166	-0.490875	-3.39801	
7.60015	10.9436	25.3555	-0.48852	-3.34348	
7.55936	10.9783	25.342	-0.486753	-3.41897	
7.56616	11.0061	25.2606	-0.485281	-3.43993	
7.51178	11.0061	25.3013	-0.482336	-3.49431	
7.48458	10.9783	25.2335	-0.479686	-3.49375	
7.40981	11.0338	25.281	-0.478508	-3.62404	
7.437	11.0755	25.2674	-0.478213	-3.63849	
7.51857	11.0408	25.1793	-0.477624	-3.52221	
7.4438	11.1102	25.1928	-0.474974	-3.66639	
7.45739	11.1171	25.1454	-0.469674	-3.65973	
7.37582	11.1588	25.0572	-0.462901	-3.78294	
7.4166	11.2073	25.0776	-0.456717	-3.79073	
7.37582	11.2073	25.064	-0.4523	-3.83152	
7.40301	11.242	25.064	-0.448472	-3.83903	
7.4234	11.3045	25.0166	-0.446705	-3.88109	
7.4166	11.3322	25.003	-0.444055	-3.91564	
7.4302	11.3322	25.0166	-0.441405	-3.90205	
7.39621	11.3947	24.9691	-0.439638	-3.99849	
7.4302	11.4225	24.9284	-0.43846	-3.99226	
7.46419	11.4502	24.8742	-0.439638	-3.98603	
7.47099	11.4988	24.9149	-0.441405	-4.02781	
7.4302	11.5335	24.8742	-0.442583	-4.10329	
7.4166	11.6098	24.8471	-0.442877	-4.19322	
7.437	11.6168	24.82	-0.443466	-4.17977	
7.48458	11.6584	24.8471	-0.44435	-4.17382	
7.45739	11.6931	24.8064	-0.445528	-4.23571	
7.38261	11.7278	24.7589	-0.445528	-4.34519	
7.36222	11.7833	24.7996	-0.443466	-4.4211	
7.47099	11.8527	24.7318	-0.440816	-4.38172	
7.45059	11.8874	24.725	-0.438755	-4.43682	
7.38261	11.9429	24.6708	-0.437871	-4.56031	
7.38261	11.9915	24.6708	-0.436693	-4.60889	
7.49818	11.9915	24.6166	-0.435221	-4.49332	
7.47779	12.0887	24.6301	-0.433749	-4.61087	
7.4166	12.165	24.5894	-0.432571	-4.74839	
7.40301	12.2205	24.603	-0.431099	-4.8175	
7.40301	12.2691	24.542	-0.430215	-4.86608	
7.37582	12.2899	24.5284	-0.428743	-4.91409	
7.34183	12.3177	24.5352	-0.426093	-4.97583	
7.31463	12.394	24.5284	-0.422854	-5.07936	
7.36902	12.4911	24.5081	-0.422265	-5.12213	
7.24665	12.505	24.4539	-0.421676	-5.25837	
7.28744	12.5258	24.4878	-0.419909	-5.2384	
7.22626	12.5536	24.4471	-0.418437	-5.32734	
7.20587	12.6438	24.4742	-0.415786	-5.43795	
7.29424	12.7063	24.3861	-0.41402	-5.41203	
7.26705	12.7618	24.3657	-0.411369	-5.49474	
7.20587	12.8104	24.4064	-0.411075	-5.6045	
7.19907	12.8312	24.3996	-0.41078	-5.63212	
7.21946	12.8589	24.3183	-0.409897	-5.63948	
7.19907	12.8728	24.3047	-0.40813	-5.67375	
7.18547	12.9769	24.3386	-0.406069	-5.79144	
7.17867	13.0116	24.2979	-0.404008	-5.83294	
7.20587	13.0324	24.2505	-0.401063	-5.82657	
7.15828	13.0255	24.2098	-0.398118	-5.86721	
7.23986	13.0949	24.2098	-0.396057	-5.85503	
7.13109	13.0879	24.1623	-0.395763	-5.95686	
7.05631	13.1365	24.2505	-0.394879	-6.08021	
7.17188	13.1226	24.1827	-0.39429	-5.95077	
7.15148	13.1851	24.1284	-0.392523	-6.03362	
7.0835	13.1851	24.1556	-0.389284	-6.1016	
7.17188	13.2129	24.1352	-0.385456	-6.04098	
7.21946	13.2267	24.1352	-0.382512	-6.00728	
7.0903	13.2961	24.0742	-0.378683	-6.20583	
7.15148	13.2892	24.0471	-0.37515	-6.13771	
7.16508	13.3378	24.0267	-0.3725	-6.17269	
7.0903	13.2476	23.9657	-0.368377	-6.15726	
7.1039	13.3308	23.9251	-0.363666	-6.22694	
7.15828	13.317	23.9928	-0.361015	-6.15867	
7.0903	13.2684	23.9793	-0.359543	-6.17808	
7.0903	13.3933	23.9386	-0.359249	-6.30299	
7.0903	13.3725	23.9115	-0.359543	-6.28217	
7.02232	13.3586	23.8573	-0.360426	-6.33627	
6.99513	13.4141	23.8505	-0.359838	-6.41898	
7.04951	13.4419	23.8573	-0.359543	-6.39235	
7.0835	13.421	23.7691	-0.359543	-6.33754	
6.99513	13.428	23.8098	-0.359249	-6.43286	
7.00872	13.428	23.7759	-0.357776	-6.41926	
7.02912	13.4488	23.7149	-0.357776	-6.41968	
6.95434	13.421	23.7013	-0.357482	-6.4667	
6.96114	13.4419	23.7081	-0.357187	-6.48073	
6.98833	13.4627	23.6742	-0.356598	-6.47435	
6.93395	13.4835	23.6945	-0.354832	-6.54955	
6.94074	13.3725	23.6539	-0.352476	-6.43172	
6.97473	13.3725	23.6132	-0.347764	-6.39773	
6.94754	13.2753	23.5861	-0.342758	-6.32777	
6.88636	13.2684	23.5929	-0.339519	-6.38202	
6.88636	13.2198	23.5454	-0.335691	-6.33344	
6.90675	13.1365	23.5386	-0.334219	-6.22977	
6.87956	13.1157	23.5251	-0.331569	-6.23614	
6.94754	13.0949	23.4708	-0.329213	-6.14735	
6.89996	13.0602	23.4776	-0.326857	-6.16023	
6.85917	13.0186	23.4573	-0.324207	-6.15938	
6.91355	12.9492	23.4234	-0.323618	-6.03561	
6.93395	12.9353	23.403	-0.323618	-6.00133	
6.91355	12.8798	23.4369	-0.324207	-5.96621	
6.85917	12.8242	23.3759	-0.325385	-5.96508	
6.87276	12.7965	23.3285	-0.324796	-5.92372	
6.86597	12.6924	23.3013	-0.324796	-5.82643	
6.91355	12.6161	23.2878	-0.323618	-5.70251	
6.89996	12.6161	23.3013	-0.322146	-5.7161	
6.90675	12.5258	23.2607	-0.322146	-5.61909	
6.88636	12.4981	23.2335	-0.320379	-5.61173	
6.85917	12.4079	23.1996	-0.318612	-5.54871	
6.87276	12.394	23.1996	-0.318023	-5.52123	
6.84557	12.3593	23.1861	-0.318612	-5.51373	
6.92715	12.3662	23.159	-0.320084	-5.43909	
6.94754	12.2968	23.0708	-0.320379	-5.3493	
6.92715	12.2621	23.0708	-0.319496	-5.335	
6.89996	12.3038	23.0369	-0.318612	-5.40383	
6.87276	12.283	23.1318	-0.316551	-5.4102	
6.89316	12.3454	23.064	-0.314784	-5.45226	
6.92035	12.3524	22.9895	-0.313017	-5.43201	
6.92035	12.3524	23.0098	-0.311839	-5.43201	
6.94754	12.3593	22.9624	-0.31125	-5.41176	
7.01552	12.3871	22.9556	-0.31125	-5.37153	
6.89996	12.4148	22.9488	-0.310367	-5.51486	
6.83877	12.4009	22.9013	-0.310662	-5.56216	
6.89996	12.3593	22.9488	-0.310662	-5.45934	
6.84557	12.3732	22.9081	-0.310662	-5.5276	
6.83198	12.3315	22.9013	-0.309189	-5.49956	
6.77079	12.3107	22.9149	-0.306245	-5.53993	
6.68242	12.3315	22.8674	-0.301239	-5.64912	
6.65523	12.3246	22.8403	-0.297116	-5.66937	
6.64163	12.276	22.82	-0.29211	-5.63439	
6.60084	12.2899	22.82	-0.28681	-5.68906	
6.69602	12.2413	22.7454	-0.281509	-5.54531	
6.62124	12.1927	22.7522	-0.275914	-5.57151	
6.53286	12.1789	22.7115	-0.270614	-5.64601	
6.57365	12.1927	22.7047	-0.26708	-5.6191	
6.60764	12.165	22.7319	-0.264136	-5.55735	
6.62124	12.2344	22.6641	-0.262958	-5.61315	
6.62804	12.165	22.6166	-0.264136	-5.53695	
6.64163	12.1997	22.5895	-0.265608	-5.55806	
6.63483	12.1511	22.5827	-0.267375	-5.51628	
6.64163	12.1442	22.5013	-0.268553	-5.50254	
6.62124	12.1789	22.5081	-0.268258	-5.55763	
6.66203	12.1372	22.4878	-0.268258	-5.47521	
6.60764	12.1303	22.4064	-0.267375	-5.52265	
6.60764	12.1095	22.3929	-0.266491	-5.50183	
6.55326	12.054	22.4268	-0.26443	-5.5007	
6.57365	12.054	22.3658	-0.263252	-5.48031	
6.55326	12.0609	22.4064	-0.260602	-5.50764	
6.57365	12.047	22.3115	-0.25913	-5.47337	
6.60764	12.0262	22.3183	-0.257657	-5.41856	
6.53286	11.9846	22.3251	-0.256185	-5.4517	
6.51927	11.9568	22.2369	-0.254418	-5.43754	
6.47168	12.0054	22.2166	-0.253535	-5.5337	
6.43769	11.9846	22.2302	-0.251768	-5.54687	
6.37651	12.047	22.2166	-0.249118	-5.67051	
6.43089	11.9637	22.1556	-0.246173	-5.53285	
6.36971	11.9984	22.1353	-0.242934	-5.62873	
6.3969	12.0123	22.1217	-0.239106	-5.61542	
6.31533	12.047	22.081	-0.235867	-5.73169	
6.35612	11.9915	22.0336	-0.234395	-5.63539	
6.36971	11.9568	22.0064	-0.230861	-5.58709	
6.34932	12.054	22.0268	-0.226738	-5.70464	
6.39011	12.0193	21.959	-0.223794	-5.62915	
6.30173	12.0609	21.898	-0.221144	-5.75917	
6.36291	12.0748	21.9454	-0.217904	-5.71186	
6.35612	12.0331	21.9047	-0.215254	-5.67702	
6.36971	12.0817	21.8844	-0.213193	-5.712	
6.38331	12.1164	21.8776	-0.211426	-5.73311	
6.38331	12.0956	21.8302	-0.207893	-5.71229	
6.39011	12.1442	21.8302	-0.205537	-5.75407	
6.33572	12.1927	21.8031	-0.202298	-5.85703	
6.36291	12.276	21.7624	-0.19847	-5.91311	
6.33572	12.2136	21.7556	-0.193758	-5.87784	
6.32213	12.276	21.6336	-0.189636	-5.9539	
6.32892	12.2413	21.7014	-0.186691	-5.9124	
6.30853	12.3177	21.6403	-0.183452	-6.00913	
6.29493	12.3315	21.5861	-0.180802	-6.0366	
6.32213	12.3315	21.5793	-0.177268	-6.00941	
6.30853	12.394	21.5929	-0.175501	-6.08546	
6.28134	12.4426	21.5454	-0.17344	-6.16123	
6.32892	12.512	21.4776	-0.170495	-6.18304	
6.35612	12.505	21.437	-0.169317	-6.14891	
6.32892	12.5744	21.4844	-0.167551	-6.2455	
6.33572	12.6299	21.4912	-0.166962	-6.29422	
6.28134	12.6369	21.4641	-0.166962	-6.35554	
6.26094	12.6993	21.4031	-0.166667	-6.43839	
6.25415	12.6855	21.3556	-0.168139	-6.43131	
6.25415	12.7132	21.3556	-0.167845	-6.45907	
6.22016	12.7757	21.3353	-0.166667	-6.55551	
6.18617	12.8312	21.3149	-0.166078	-6.64502	
6.19296	12.9145	21.2946	-0.164606	-6.7215	
6.19976	12.9145	21.3285	-0.16225	-6.7147	
6.24055	12.9492	21.2607	-0.1596	-6.70861	
6.22695	12.9908	21.22	-0.156361	-6.76384	
6.17937	13.0602	21.1726	-0.153416	-6.88082	
6.15897	13.0671	21.1726	-0.150471	-6.90815	
6.17937	13.0741	21.1522	-0.148705	-6.8947	
6.19976	13.1504	21.1454	-0.14576	-6.95064	
6.21336	13.1435	21.1115	-0.144288	-6.93011	
6.22016	13.1573	21.098	-0.143404	-6.93719	
6.19296	13.2337	21.0641	-0.142815	-7.04071	
6.22016	13.2267	21.0234	-0.142226	-7.00658	
6.22016	13.2545	21.0166	-0.142226	-7.03434	
6.20656	13.2476	21.0166	-0.142226	-7.041	
6.23375	13.3031	20.9556	-0.141637	-7.06932	
6.24735	13.3239	20.9353	-0.141637	-7.07654	
6.20656	13.3725	20.9353	-0.140165	-7.16591	
6.23375	13.3725	20.9353	-0.138987	-7.13872	
6.19976	13.3794	20.8878	-0.137515	-7.17965	
6.23375	13.4072	20.881	-0.136337	-7.17341	
6.15897	13.3933	20.8404	-0.133981	-7.23431	
6.18617	13.4072	20.8268	-0.131626	-7.221	
6.17937	13.4349	20.7793	-0.129564	-7.25556	
6.16577	13.4072	20.7861	-0.127209	-7.24139	
6.16577	13.3933	20.759	-0.125442	-7.22751	
6.17937	13.4072	20.6912	-0.123675	-7.2278	
6.13858	13.4349	20.7048	-0.122203	-7.29634	
6.14538	13.4419	20.6641	-0.120436	-7.29648	
6.13858	13.4696	20.6641	-0.118963	-7.33104	
6.14538	13.421	20.6573	-0.116902	-7.27567	
6.16577	13.4141	20.6302	-0.115135	-7.24833	
6.17257	13.421	20.6099	-0.114252	-7.24847	
6.11819	13.4766	20.5692	-0.111602	-7.35837	
6.14538	13.4696	20.5624	-0.110129	-7.32424	
6.15218	13.4488	20.5149	-0.108068	-7.29663	
6.18617	13.428	20.4675	-0.106007	-7.24182	
6.11139	13.4696	20.4743	-0.104535	-7.35823	
6.13178	13.4627	20.4336	-0.102473	-7.3309	
6.13858	13.4349	20.4065	-0.0998231	-7.29634	
6.11139	13.4141	20.3997	-0.0980563	-7.30272	
6.057	13.3725	20.3861	-0.0957005	-7.31546	
6.0774	13.3239	20.3251	-0.0933448	-7.24649	
6.0706	13.2337	20.3522	-0.0918724	-7.16308	
6.0842	13.2406	20.3183	-0.0889278	-7.15642	
6.0638	13.1296	20.2844	-0.0868665	-7.06578	
6.11819	13.1573	20.237	-0.0842163	-7.03916	
6.03661	13.1088	20.1963	-0.0818606	-7.07216	
6.05021	13.0324	20.237	-0.0797993	-6.98222	
6.0638	12.9977	20.2099	-0.0786214	-6.93393	
6.09779	12.9075	20.1556	-0.0771491	-6.80973	
6.13178	12.9075	20.1963	-0.0765602	-6.77574	
6.09099	12.7965	20.1488	-0.0762657	-6.70549	
6.11819	12.8104	20.0878	-0.0759712	-6.69218	
6.17257	12.734	20.1014	-0.0765602	-6.56146	
6.09099	12.5744	20.081	-0.0771491	-6.48343	
6.15897	12.5883	20.0268	-0.0780325	-6.42933	
6.15897	12.4981	20.081	-0.0786214	-6.33911	
6.11139	12.4287	20.0132	-0.0789159	-6.3173	
6.0774	12.3662	19.9861	-0.0795048	-6.28884	
6.09099	12.3107	19.9251	-0.0792104	-6.21973	
6.0774	12.2691	19.9658	-0.0786214	-6.19169	
6.0842	12.165	19.9319	-0.0774436	-6.08079	
6.13858	12.1372	19.9387	-0.0759712	-5.99865	
6.0842	12.1511	19.9251	-0.07391	-6.06692	
6.09779	12.0748	19.8777	-0.0721431	-5.97698	
6.13858	12.0401	19.8099	-0.0712597	-5.9015	
6.13178	12.0331	19.8234	-0.0706708	-5.90136	
6.18617	12.0748	19.7149	-0.0709653	-5.88861	
6.17257	12.0887	19.7624	-0.0709653	-5.91609	
6.17937	12.0401	19.7488	-0.0712597	-5.86071	
6.27454	12.0678	19.7014	-0.073321	-5.7933	
6.17257	12.0678	19.6878	-0.0747934	-5.89527	
6.19976	12.0401	19.7082	-0.0765602	-5.84032	
6.26094	12.1095	19.6878	-0.0792104	-5.84853	
6.23375	12.1164	19.6607	-0.0815661	-5.88266	
6.20656	12.0748	19.6743	-0.0836274	-5.86822	
6.18617	12.0609	19.62	-0.0853942	-5.87473	
6.0774	12.0678	19.6539	-0.086572	-5.99044	
6.03661	12.0193	19.5794	-0.087161	-5.98265	
5.96183	12.0193	19.6133	-0.087161	-6.05743	
5.92104	12.0262	19.5658	-0.0848052	-6.10516	
5.90065	11.9568	19.5997	-0.0812716	-6.05615	
5.83267	11.9499	19.5251	-0.0765602	-6.11719	
5.81907	11.9499	19.5251	-0.0709653	-6.13079	
5.81228	11.9707	19.4641	-0.0641925	-6.15841	
5.76469	11.8597	19.4099	-0.0574198	-6.09496	
5.81228	11.8666	19.4166	-0.051236	-6.05431	
5.79868	11.8527	19.4234	-0.0456411	-6.05403	
5.85986	11.7486	19.3895	-0.041813	-5.88876	
5.87346	11.818	19.3556	-0.0382794	-5.94456	
5.87346	11.7972	19.3353	-0.037985	-5.92374	
5.88026	11.7486	19.315	-0.0382794	-5.86836	
5.86666	11.7139	19.3217	-0.0400462	-5.84726	
5.89385	11.6792	19.22	-0.0412241	-5.78537	
5.90065	11.6862	19.1929	-0.042402	-5.78551	
5.82587	11.6862	19.1929	-0.0432854	-5.86029	
5.87346	11.7209	19.1251	-0.042402	-5.8474	
5.83267	11.6029	19.1183	-0.0415186	-5.77022	
5.78508	11.5474	19.098	-0.0394573	-5.76229	
5.79188	11.5335	19.0641	-0.037396	-5.74161	
5.70351	11.471	19.037	-0.0341569	-5.76753	
5.62873	11.471	19.037	-0.0309177	-5.84231	
5.60834	11.4016	18.9895	-0.0265007	-5.79331	
5.55395	11.3739	18.9828	-0.0226727	-5.81993	
5.47238	11.3322	18.9285	-0.0185501	-5.85987	
5.49957	11.3114	18.9082	-0.0141331	-5.81186	
5.4044	11.3253	18.8811	-0.010305	-5.92091	
5.31602	11.2837	18.8675	-0.00677144	-5.96765	
5.28883	11.2837	18.8065	-0.00412123	-5.99484	
5.26844	11.2767	18.82	-0.000882095	-6.00829	
5.20046	11.2143	18.7794	0.000884708	-6.01382	
5.17327	11.1865	18.7184	0.00265151	-6.01325	
5.13928	11.1657	18.7184	0.00500725	-6.02642	
5.11208	11.2073	18.698	0.00618512	-6.09525	
5.11888	11.2143	18.6845	0.00736299	-6.09539	
5.07809	11.2212	18.6167	0.0103077	-6.14312	
5.01011	11.1796	18.5489	0.01178	-6.16946	
5.0577	11.1865	18.576	0.0150191	-6.12882	
4.95573	11.1102	18.5353	0.0191417	-6.15445	
4.86056	11.1102	18.4811	0.0235587	-6.24963	
4.76539	11.1588	18.4675	0.0285646	-6.39337	
4.43908	11.1241	18.4336	0.033865	-6.68498	
4.35071	11.1102	18.4201	0.0415212	-6.75948	
4.47987	11.1241	18.4472	0.047705	-6.64419	
4.30992	11.1032	18.3251	0.0541833	-6.79332	
4.14677	11.131	18.3251	0.0600726	-6.98423	
3.92923	11.1171	18.3116	0.065962	-7.18789	
3.84766	11.0755	18.2573	0.0712624	-7.22783	
3.83406	11.1032	18.2438	0.0765628	-7.26918	
3.88165	11.1171	18.1489	0.0809798	-7.23548	
3.80687	11.0616	18.176	0.0851023	-7.25474	
3.77968	11.1241	18.0879	0.0889304	-7.34439	
3.86805	11.0616	18.0675	0.0942308	-7.19356	
3.89524	11.0755	18.054	0.10012	-7.18024	
3.98362	11.0616	17.9997	0.107482	-7.07799	
4.13997	11.0616	17.9929	0.11661	-6.92164	
4.30992	11.0547	17.9658	0.128095	-6.74475	
4.41869	10.9992	17.9251	0.140168	-6.58046	
4.60903	11.0477	17.9116	0.155774	-6.4387	
4.7246	11.0338	17.8031	0.172559	-6.30925	
4.99652	10.9992	17.8031	0.192877	-6.00263	
5.24124	11.013	17.7557	0.21349	-5.77178	
5.47917	10.9853	17.7353	0.236753	-5.5061	
5.7171	11.013	17.6946	0.26031	-5.29592	
5.94824	11.013	17.6607	0.284751	-5.06479	
6.19976	10.9992	17.5658	0.310959	-4.79939	
6.47168	10.9367	17.5591	0.336283	-4.46501	
6.71641	10.9506	17.5184	0.361901	-4.23416	
7.04951	10.9159	17.4913	0.385459	-3.86636	
7.37582	10.8881	17.4641	0.407838	-3.5123	
7.53217	10.9159	17.4099	0.42904	-3.38371	
7.67493	10.8673	17.3896	0.449064	-3.19237	
7.89926	10.8118	17.376	0.467615	-2.91252	
7.99443	10.8118	17.3624	0.484989	-2.81735	
7.91966	10.8048	17.3082	0.498829	-2.88519	
7.81769	10.7424	17.2133	0.511196	-2.9247	
7.68173	10.7008	17.1591	0.522681	-3.01903	
7.57976	10.7216	17.1319	0.532692	-3.14181	
7.66813	10.6591	17.1726	0.540643	-2.99098	
7.79049	10.6452	17.0845	0.545943	-2.85474	
7.66813	10.6036	16.9963	0.548005	-2.93547	
7.71572	10.555	17.0099	0.549183	-2.83931	
7.73611	10.5411	16.976	0.549183	-2.80503	
7.7769	10.4787	16.9218	0.549183	-2.70179	
7.85847	10.4093	16.8947	0.550066	-2.55082	
7.85168	10.4301	16.8404	0.550655	-2.57843	
7.85168	10.3954	16.8404	0.552422	-2.54374	
7.89246	10.3191	16.8065	0.555072	-2.42661	
7.87887	10.2913	16.7048	0.558017	-2.41245	
7.87207	10.1942	16.6913	0.563023	-2.3221	
7.7769	10.1942	16.6031	0.568323	-2.41727	
7.80409	10.1317	16.5896	0.573329	-2.32762	
7.82448	10.0762	16.6167	0.576862	-2.25171	
7.79729	9.99292	16.5353	0.580396	-2.19563	
7.81769	9.98598	16.5286	0.583046	-2.16829	
7.71572	9.97904	16.4336	0.585108	-2.26332	
7.73611	9.88883	16.3862	0.585402	-2.15272	
7.70892	9.84719	16.3862	0.585108	-2.13827	
7.7701	9.83331	16.3591	0.586285	-2.06321	
7.60695	9.76391	16.3387	0.587758	-2.15697	
7.57976	9.66676	16.3048	0.58923	-2.08701	
7.53217	9.59043	16.2303	0.590997	-2.05826	
7.47779	9.4447	16.2099	0.593058	-1.96691	
7.53217	9.38918	16.1557	0.595708	-1.85701	
7.51178	9.28509	16.1421	0.598064	-1.77331	
7.52537	9.15324	16.1014	0.599831	-1.62786	
7.58655	9.15324	15.9998	0.600125	-1.56668	
7.60015	9.00057	16.0133	0.599242	-1.40042	
7.62054	8.85484	15.9862	0.598064	-1.23429	
7.62054	8.79932	15.932	0.59777	-1.17878	
7.61375	8.63971	15.8981	0.598359	-1.02597	
7.71572	8.5148	15.8845	0.599536	-0.799085	
7.72931	8.34131	15.8506	0.599242	-0.612	
7.72251	8.2511	15.8167	0.599242	-0.528585	
7.81089	8.14007	15.8167	0.600125	-0.329178	
7.91286	7.95964	15.7286	0.601598	-0.0467806	
7.98764	7.85555	15.7082	0.602776	0.13209	
7.90606	7.64042	15.6879	0.604542	0.26564	
8.01483	7.55715	15.6811	0.606309	0.457682	
8.00123	7.37672	15.5794	0.609843	0.624513	
8.06241	7.26569	15.5387	0.615438	0.796728	
8.17118	7.06444	15.532	0.619855	1.10674	
8.13719	6.98116	15.5048	0.624272	1.15603	
8.13039	6.87013	15.4438	0.629278	1.26026	
8.08961	6.70358	15.4506	0.635167	1.38602	
8.23236	6.62031	15.4235	0.640467	1.61205	
8.22557	6.57173	15.3828	0.64459	1.65383	
8.25956	6.44682	15.3421	0.646946	1.81273	
8.36153	6.41212	15.2743	0.648418	1.9494	
8.22557	6.34967	15.2472	0.649301	1.8759	
8.31394	6.25945	15.2404	0.649007	2.05448	
8.38192	6.21782	15.1862	0.647535	2.1641	
8.34793	6.2317	15.193	0.646357	2.11623	
8.32754	6.1623	15.1184	0.64459	2.16523	
8.39552	6.06515	15.1726	0.643412	2.33037	
8.35473	6.04433	15.1116	0.64194	2.3104	
8.4635	5.97493	15.0913	0.640467	2.48856	
8.41591	5.8986	15.0371	0.639878	2.51731	
8.25956	5.85696	15.0371	0.641056	2.40259	
8.36153	5.77369	15.0167	0.64194	2.58784	
8.23236	5.74593	14.9557	0.64459	2.48643	
8.32074	5.69735	14.915	0.646357	2.62338	
8.25276	5.62796	14.915	0.648712	2.6248	
8.25276	5.55162	14.8879	0.651657	2.70113	
8.25956	5.47529	14.8405	0.653129	2.78427	
8.35473	5.39201	14.8066	0.654013	2.96271	
8.29355	5.32956	14.793	0.654602	2.96399	
8.33433	5.28792	14.7727	0.654896	3.04641	
8.30034	5.19077	14.7455	0.655485	3.10958	
8.29355	5.12831	14.6913	0.654307	3.16523	
8.34793	5.05892	14.6981	0.652541	3.28901	
8.39552	4.9687	14.576	0.650774	3.42681	
8.48389	4.92707	14.6235	0.651068	3.55682	
8.4431	4.84379	14.5489	0.652246	3.59931	
8.4499	4.67724	14.5354	0.653718	3.77266	
8.42951	4.60091	14.5015	0.65578	3.8286	
8.47029	4.53151	14.4879	0.657252	3.93878	
8.57226	4.48294	14.4879	0.658135	4.08933	
8.51108	4.3719	14.4676	0.658135	4.13918	
8.48389	4.28169	14.4201	0.657252	4.2022	
8.49069	4.14984	14.393	0.656663	4.34085	
8.4567	4.09432	14.332	0.655191	4.36237	
8.30034	3.96941	14.3252	0.653424	4.33093	
8.38192	3.85144	14.3252	0.651363	4.53048	
8.32074	3.7751	14.2913	0.650185	4.54563	
8.27315	3.75429	14.2913	0.651657	4.51887	
8.35473	3.65713	14.2913	0.655485	4.6976	
8.38872	3.60162	14.2235	0.658135	4.7871	
8.38192	3.5114	14.2235	0.661669	4.87052	
8.4635	3.44201	14.1896	0.664025	5.02149	
8.4567	3.38649	14.1218	0.667264	5.07021	
8.42951	3.32403	14.1422	0.668442	5.10547	
8.4499	3.25464	14.1218	0.669325	5.19526	
8.49749	3.17137	14.0201	0.667264	5.32612	
8.51108	3.12973	14.0744	0.665203	5.38135	
8.50428	3.04645	14.0472	0.663141	5.45783	
8.41591	3.03951	14.0676	0.661669	5.37639	
8.40911	2.97012	13.993	0.659313	5.43899	
8.53148	2.90072	13.9862	0.658724	5.63075	
8.35473	2.86603	13.9862	0.656958	5.4887	
8.4499	2.85909	13.9523	0.657546	5.59081	
8.36153	2.76887	13.9388	0.657841	5.59265	
8.27995	2.73418	13.9184	0.658724	5.54577	
8.33433	2.70642	13.8981	0.659313	5.62792	
8.30034	2.65784	13.8506	0.660786	5.6425	
8.19158	2.56763	13.871	0.661963	5.62395	
8.23236	2.54681	13.8303	0.661669	5.68556	
8.22557	2.51905	13.81	0.662552	5.70652	
8.21877	2.52599	13.81	0.66373	5.69278	
8.22557	2.47047	13.7557	0.66638	5.75509	
8.1168	2.44965	13.7896	0.669325	5.66714	
8.14399	2.4219	13.7693	0.674037	5.72209	
8.15079	2.39414	13.7557	0.676098	5.75665	
8.17798	2.38026	13.7015	0.678454	5.79772	
8.26635	2.34556	13.6879	0.679926	5.92079	
8.1168	2.29005	13.6744	0.680515	5.82675	
8.19837	2.26923	13.7015	0.679926	5.92915	
8.23916	2.26229	13.6472	0.68022	5.97687	
8.08961	2.24841	13.593	0.681693	5.8412	
8.19158	2.17901	13.6676	0.683754	6.01256	
8.21197	2.22759	13.6066	0.685815	5.98438	
8.28675	2.18595	13.593	0.688171	6.10079	
8.19837	2.17207	13.5862	0.689349	6.0263	
8.31394	2.14432	13.5862	0.69141	6.16962	
8.40231	2.1235	13.593	0.692294	6.27882	
8.4499	2.15126	13.5523	0.691999	6.29864	
8.4431	2.13738	13.5727	0.689938	6.30573	
8.4499	2.13044	13.593	0.687877	6.31946	
8.40911	2.1235	13.5252	0.685815	6.28561	
8.38192	2.09574	13.4981	0.68346	6.28618	
8.47709	2.1235	13.4778	0.681987	6.35359	
8.53827	2.13044	13.5184	0.68022	6.40784	
8.49749	2.10962	13.4981	0.678748	6.38787	
8.51108	2.08186	13.4778	0.677865	6.42922	
8.61985	2.07492	13.4303	0.678159	6.54493	
8.51788	2.06104	13.4778	0.677276	6.45684	
8.51788	2.0541	13.532	0.675215	6.46378	
8.48389	2.08186	13.4642	0.673448	6.40203	
8.49749	2.04022	13.4371	0.670503	6.45726	
8.42271	2.04716	13.471	0.666675	6.37554	
8.47709	2.0541	13.4235	0.663436	6.42299	
8.49069	1.99165	13.4167	0.660786	6.49904	
8.53148	2.01246	13.4235	0.65843	6.51901	
8.48389	2.0194	13.4439	0.657546	6.46449	
8.59266	2.02634	13.3693	0.657252	6.56631	
8.4431	1.95001	13.3489	0.658724	6.49309	
8.49069	2.01246	13.3422	0.65843	6.47822	
8.60625	1.94307	13.3693	0.659019	6.66318	
8.59266	1.97083	13.3151	0.65843	6.62183	
8.57906	1.98471	13.3151	0.656958	6.59435	
8.55187	1.95695	13.3218	0.654896	6.59492	
8.57906	1.95001	13.3693	0.652541	6.62905	
8.57226	1.92919	13.3286	0.64989	6.64307	
8.61305	1.95001	13.2744	0.64724	6.66304	
8.66744	1.97083	13.254	0.644884	6.69661	
8.59266	1.93613	13.2947	0.642823	6.65653	
8.57226	1.91531	13.2269	0.641056	6.65695	
8.55867	1.91531	13.2337	0.638112	6.64336	
8.65384	1.91531	13.2405	0.636345	6.73853	
8.47029	1.88755	13.2405	0.6334	6.58274	
8.62665	1.8251	13.2066	0.629572	6.80155	
8.57906	1.79734	13.193	0.624272	6.78172	
8.50428	1.721	13.2134	0.61956	6.78328	
8.57906	1.59609	13.2066	0.615732	6.98297	
8.59266	1.54058	13.193	0.612787	7.05208	
8.64024	1.46424	13.1862	0.611904	7.176	
8.7966	1.34627	13.1591	0.611021	7.45033	
8.83059	1.20054	13.2269	0.61161	7.63005	
8.73542	1.16584	13.1727	0.611315	7.56957	
8.7898	1.13808	13.1184	0.610137	7.65171	
8.83738	0.950717	13.1523	0.607487	7.88667	
8.88497	0.888261	13.1252	0.604248	7.99671	
8.89177	0.818866	13.1727	0.600714	8.0729	
8.92576	0.673136	13.0845	0.596592	8.25262	
8.91896	0.589862	13.0778	0.592764	8.3291	
8.90536	0.506588	13.1117	0.587758	8.39878	
8.94615	0.381676	13.1388	0.58393	8.56448	
8.97334	0.312281	13.1184	0.579513	8.66106	
9.03453	0.17349	13.132	0.575096	8.86104	
8.99374	0.0693974	13.1388	0.57009	8.92434	
8.98694	0.0208207	13.0032	0.564789	8.96612	
8.96655	-0.0485745	13.0642	0.559783	9.01512	
8.98014	-0.131849	13.0845	0.552716	9.11199	
9.01413	-0.270639	13.0913	0.546827	9.28477	
9.08891	-0.319216	13.0303	0.54241	9.40813	
9.07531	-0.374732	13.0845	0.537698	9.45005	
9.03453	-0.437188	13.0439	0.534459	9.47171	
9.10251	-0.423309	13.0439	0.530926	9.52582	
9.1161	-0.520462	13.0439	0.527392	9.63657	
9.04132	-0.513523	13.0303	0.524153	9.55485	
9.1093	-0.513523	13.0913	0.519147	9.62283	
9.16369	-0.54822	13.0303	0.514141	9.71191	
9.18408	-0.541281	13.0235	0.509135	9.72536	
9.19768	-0.520462	13.0303	0.504424	9.71814	
9.17049	-0.513523	13.01	0.501479	9.68401	
9.21127	-0.569039	12.9896	0.49824	9.78031	
9.18408	-0.569039	13.0303	0.493528	9.75312	
9.24526	-0.562099	13.0032	0.489995	9.80736	
9.16369	-0.562099	13.0574	0.483811	9.72579	
9.15689	-0.534341	13.0642	0.47851	9.69123	
9.21127	-0.582918	13.01	0.472621	9.79419	
9.06172	-0.55516	13.071	0.467026	9.61688	
9.06852	-0.603737	13.0506	0.463493	9.67225	
9.16369	-0.589858	13.0032	0.45937	9.75355	
9.16369	-0.617616	13.0506	0.456425	9.7813	
9.07531	-0.666192	12.9896	0.453481	9.74151	
9.1365	-0.680071	12.9964	0.451419	9.81657	
9.15009	-0.680071	12.9761	0.449653	9.83016	
9.19088	-0.666192	12.9964	0.447886	9.85707	
9.19088	-0.673132	13.0032	0.446414	9.86401	
9.21127	-0.728648	12.9693	0.44288	9.93992	
9.29965	-0.714769	12.9422	0.439052	10.0144	
9.22487	-0.714769	12.9761	0.435224	9.93964	
9.32684	-0.818862	13.0439	0.431396	10.1457	
9.34044	-0.784164	12.9896	0.427568	10.1246	
9.32684	-0.811922	12.9829	0.423445	10.1388	
9.31324	-0.818862	12.9557	0.418439	10.1321	
9.31324	-0.874378	12.9896	0.41255	10.1876	
9.37443	-0.916015	12.9557	0.40666	10.2904	
9.38122	-0.902136	13.0235	0.401949	10.2834	
9.34723	-0.922955	13.0168	0.398415	10.2702	
9.456	-0.978471	13.0439	0.39606	10.4345	
9.42201	-0.943773	13.0168	0.393998	10.3658	
9.44241	-0.978471	12.9964	0.390465	10.4209	
9.4696	-1.02705	12.9964	0.387226	10.4966	
9.4492	-1.04787	13.0303	0.384281	10.4971	
9.55117	-1.04787	13.0235	0.380453	10.599	
9.57157	-1.08256	13.0439	0.376919	10.6541	
9.56477	-1.09644	13.0303	0.371913	10.6612	
9.61236	-1.0895	13.0642	0.366907	10.7019	
9.62595	-1.11726	13.1049	0.361018	10.7432	
9.70073	-1.06175	13.0439	0.355129	10.7625	
9.68034	-1.06868	13.0371	0.348061	10.749	
9.65994	-1.06868	13.0303	0.340994	10.7286	
9.72112	-1.05481	13.0845	0.332749	10.7759	
9.73472	-1.04093	13.0913	0.325093	10.7756	
9.7891	-0.985411	13.0981	0.315965	10.7745	
9.76871	-1.02705	13.132	0.307425	10.7958	
9.8095	-0.99929	13.0778	0.298297	10.8088	
9.8027	-0.964592	13.1184	0.289757	10.7673	
9.82989	-0.957652	13.1727	0.280923	10.7875	
9.86388	-0.874378	13.1659	0.270617	10.7383	
9.91147	-0.916015	13.1591	0.260605	10.8275	
9.7959	-0.874378	13.1862	0.251182	10.6703	
9.84349	-0.85356	13.1862	0.242642	10.697	
9.8163	-0.818862	13.1456	0.234103	10.6352	
9.8095	-0.818862	13.1523	0.226447	10.6284	
9.85029	-0.804983	13.1795	0.21879	10.6553	
9.7959	-0.742527	13.2134	0.212312	10.5384	
9.74152	-0.69395	13.1795	0.206128	10.4355	
9.8095	-0.69395	13.1998	0.199945	10.5034	
9.82989	-0.687011	13.2269	0.19435	10.5169	
9.8163	-0.610676	13.2066	0.188166	10.427	
9.82989	-0.596797	13.2473	0.183749	10.4267	
9.76191	-0.55516	13.2337	0.177859	10.3171	
9.73472	-0.589858	13.3015	0.173148	10.3246	
9.76871	-0.471886	13.2744	0.168142	10.2406	
9.8095	-0.485765	13.2405	0.163431	10.2953	
9.75511	-0.437188	13.2744	0.160191	10.1923	
9.76871	-0.40249	13.2608	0.159014	10.1712	
9.73472	-0.360853	13.2947	0.156363	10.0956	
7.84488	-0.340035	13.3286	0.153419	8.18491	
7.27385	-0.284518	13.3557	0.151357	7.55836	
8.24596	-0.222063	13.3422	0.147529	8.46802	
7.70892	-0.180426	13.3354	0.138401	7.88934	
6.96114	-0.173486	13.3015	0.12515	7.13462	
6.48528	-0.138788	13.3557	0.106893	6.62407	
6.60764	-0.0971512	13.3964	0.0815687	6.70479	
6.99513	-0.0902117	13.3422	0.0494718	7.08534	
7.20587	-0.0555141	13.3828	0.0100132	7.26138	
7.17188	0.00694167	13.3489	-0.0403407	7.16493	
6.94754	0.0832765	13.3557	-0.0965839	6.86427	
7.04271	0.0971555	13.4032	-0.154005	6.94556	
7.24665	0.145732	13.4032	-0.207893	7.10092	
7.31463	0.187369	13.3693	-0.253535	7.12726	
7.11749	0.215127	13.3761	-0.289165	6.90236	
7.01552	0.242886	13.4032	-0.315373	6.77264	
7.0767	0.298402	13.4167	-0.333336	6.7783	
7.0767	0.312281	13.3896	-0.34217	6.76442	
6.94074	0.402495	13.3761	-0.343347	6.53825	
6.86597	0.430253	13.3625	-0.337164	6.43571	
6.83877	0.485769	13.3693	-0.327741	6.35301	
6.92035	0.520467	13.4167	-0.315373	6.39988	
6.83877	0.569043	13.4303	-0.303005	6.26973	
6.82518	0.603741	13.4439	-0.291521	6.22144	
6.69602	0.631499	13.3828	-0.281215	6.06452	
6.66203	0.638439	13.4439	-0.273559	6.02359	
6.69602	0.728652	13.4235	-0.266786	5.96736	
6.70961	0.784169	13.4032	-0.264136	5.92544	
6.68922	0.791108	13.3964	-0.263252	5.89811	
6.62124	0.811927	13.4235	-0.264136	5.80931	
6.64163	0.860503	13.3693	-0.265019	5.78113	
6.55326	0.874382	13.41	-0.266786	5.67888	
6.61444	0.922959	13.3761	-0.26708	5.69148	
6.62804	1.01317	13.4506	-0.267669	5.61486	
6.58045	1.02011	13.4032	-0.267375	5.56034	
6.57365	1.06175	13.4235	-0.267375	5.5119	
6.59405	1.11033	13.4032	-0.266491	5.48372	
6.53966	1.13114	13.3896	-0.265903	5.40852	
6.51247	1.11033	13.3828	-0.262074	5.40214	
6.49208	1.11033	13.3896	-0.257657	5.38175	
6.55326	1.11727	13.3896	-0.253535	5.43599	
6.51927	1.11033	13.4167	-0.249707	5.40894	
6.50567	1.10339	13.4167	-0.246468	5.40229	
6.57365	1.03399	13.3557	-0.243818	5.53966	
6.58045	1.03399	13.4303	-0.241167	5.54646	
6.68922	0.964596	13.3489	-0.239106	5.72462	
6.7368	0.992354	13.3761	-0.239106	5.74445	
6.84557	0.91602	13.41	-0.239989	5.92955	
6.90675	0.881322	13.3489	-0.241756	6.02543	
6.96114	0.922959	13.41	-0.244701	6.03818	
7.02232	0.846624	13.3761	-0.250296	6.1757	
7.11749	0.846624	13.3896	-0.254124	6.27087	
7.16508	0.770289	13.4439	-0.257363	6.39479	
7.21266	0.777229	13.3964	-0.262074	6.43543	
7.35542	0.770289	13.3896	-0.267669	6.58513	
7.38261	0.742531	13.3625	-0.273853	6.64008	
7.4438	0.735592	13.3761	-0.278565	6.7082	
7.55936	0.673136	13.4032	-0.28416	6.88623	
7.64094	0.673136	13.3557	-0.287693	6.9678	
7.63414	0.659257	13.4032	-0.292994	6.97488	
7.74971	0.645378	13.4235	-0.299766	7.10433	
7.80409	0.603741	13.4439	-0.307128	7.20035	
7.81769	0.596801	13.4303	-0.316256	7.22088	
7.82448	0.707834	13.4167	-0.325974	7.11665	
7.82448	0.707834	13.3828	-0.335102	7.11665	
7.74291	0.76335	13.3693	-0.344231	6.97956	
7.74971	0.839685	13.4167	-0.353065	6.91002	
7.74971	0.874382	13.4235	-0.361899	6.87532	
7.7701	0.999294	13.3828	-0.369849	6.77081	
7.85168	1.02705	13.3828	-0.378978	6.82462	
7.94005	1.17972	13.3557	-0.387812	6.76033	
8.00123	1.263	13.3557	-0.396351	6.73824	
8.05562	1.35321	13.3828	-0.406658	6.70241	
7.99443	1.44342	13.4167	-0.41667	6.55101	
8.20517	1.5614	13.3625	-0.429921	6.64378	
8.18478	1.65855	13.3557	-0.444644	6.52623	
8.27315	1.70019	13.3964	-0.460251	6.57297	
8.34793	1.84592	13.41	-0.475563	6.50201	
8.23236	1.92225	13.4167	-0.489403	6.31011	
8.32754	2.01246	13.4032	-0.502949	6.31507	
8.32074	2.0888	13.3828	-0.514433	6.23194	
8.35473	2.19983	13.3964	-0.527684	6.1549	
8.30714	2.32474	13.41	-0.539757	5.9824	
8.33433	2.3872	13.4235	-0.550652	5.94713	
8.4499	2.53293	13.4032	-0.558014	5.91697	
8.39552	2.58845	13.4235	-0.563903	5.80707	
8.34113	2.70642	13.3964	-0.568909	5.63471	
8.39552	2.82439	13.4032	-0.575388	5.57113	
8.4499	2.94236	13.3761	-0.581571	5.50754	
8.36153	3.08115	13.41	-0.588933	5.28037	
8.4567	3.19912	13.3828	-0.596	5.25757	
8.56547	3.27546	13.41	-0.602184	5.29001	
8.58586	3.39343	13.41	-0.608073	5.19243	
8.70143	3.49058	13.4506	-0.612785	5.21084	
8.70143	3.57386	13.4167	-0.617202	5.12757	
8.83059	3.72653	13.4235	-0.621913	5.10406	
8.65384	3.83756	13.4303	-0.625152	4.81628	
8.74901	3.93471	13.4506	-0.631042	4.8143	
8.68783	4.01799	13.4439	-0.637226	4.66984	
8.66064	4.14984	13.471	-0.644293	4.5108	
8.76261	4.21923	13.471	-0.651655	4.54337	
8.73542	4.30945	13.4167	-0.658133	4.42597	
8.80339	4.4413	13.5049	-0.6652	4.3621	
8.81699	4.60785	13.5117	-0.6705	4.20914	
8.76941	4.63561	13.5049	-0.674917	4.1338	
8.82379	4.80215	13.4506	-0.679334	4.02164	
8.87137	4.89237	13.4981	-0.681101	3.97901	
8.70822	4.97564	13.5117	-0.682574	3.73258	
8.76261	5.14219	13.5252	-0.68434	3.62042	
8.71502	5.24628	13.4913	-0.686991	3.46874	
8.83059	5.39895	13.532	-0.689641	3.43163	
8.83738	5.43365	13.5456	-0.691997	3.40373	
8.7898	5.51693	13.5456	-0.693763	3.27287	
8.783	5.68347	13.6201	-0.69553	3.09953	
8.7898	5.82226	13.5659	-0.697591	2.96753	
8.80339	5.87778	13.6066	-0.701714	2.92561	
8.83059	6.03045	13.593	-0.705542	2.80014	
8.73542	6.15536	13.5998	-0.709076	2.58005	
8.74901	6.22476	13.6201	-0.71202	2.52425	
8.75581	6.41212	13.6472	-0.715259	2.34369	
8.85098	6.48152	13.6405	-0.718499	2.36946	
8.7898	6.59949	13.654	-0.722032	2.19031	
8.783	6.73134	13.6947	-0.723799	2.05166	
8.72862	6.84931	13.7083	-0.724977	1.8793	
8.69463	6.94647	13.6608	-0.724093	1.74816	
8.65384	7.07832	13.715	-0.722327	1.57552	
8.66744	7.18241	13.715	-0.721738	1.48502	
8.72862	7.36978	13.7083	-0.72056	1.35884	
8.68103	7.41836	13.7557	-0.720265	1.26268	
8.66744	7.50857	13.7286	-0.718204	1.15887	
8.68783	7.64736	13.7557	-0.71467	1.04047	
8.61305	7.73757	13.7896	-0.712609	0.875478	
8.61305	7.918	13.7354	-0.710842	0.69505	
8.68783	7.98046	13.7828	-0.708781	0.707372	
8.74221	8.08455	13.8371	-0.705836	0.657663	
8.62665	8.2511	13.8303	-0.703186	0.375549	
8.53827	8.32049	13.7896	-0.700831	0.21778	
8.62665	8.38989	13.8303	-0.700536	0.236758	
8.57906	8.52868	13.7964	-0.700536	0.0503819	
8.53148	8.63277	13.8235	-0.701125	-0.101297	
8.49749	8.73687	13.8303	-0.700831	-0.23938	
8.47709	8.80626	13.8778	-0.69818	-0.329169	
8.4431	8.91729	13.8845	-0.69553	-0.474191	
8.48389	9.03526	13.9117	-0.693469	-0.551375	
8.4567	9.06996	13.9049	-0.691408	-0.613265	
8.49069	9.23651	13.8778	-0.68758	-0.745824	
8.50428	9.29897	13.932	-0.683751	-0.794683	
8.48389	9.38918	13.9049	-0.678745	-0.905291	
8.40231	9.47245	13.9794	-0.674917	-1.07014	
8.30714	9.59043	13.9252	-0.672856	-1.28329	
8.55867	9.68064	13.9388	-0.670795	-1.12197	
8.4499	9.68758	13.9184	-0.669323	-1.23768	
8.32074	9.78473	13.9862	-0.667556	-1.464	
8.35473	9.88189	13.9862	-0.664611	-1.52716	
8.42951	10.0068	13.9659	-0.660489	-1.57729	
8.4363	10.0623	13.9794	-0.657544	-1.62601	
8.42271	10.215	13.9794	-0.655188	-1.79228	
8.36153	10.2219	13.9659	-0.653127	-1.8604	
8.36153	10.2844	13.9998	-0.65136	-1.92285	
8.40911	10.3954	14.0269	-0.647826	-1.9863	
8.28675	10.4509	13.9862	-0.643998	-2.16418	
8.20517	10.5134	13.9794	-0.640759	-2.30821	
8.36153	10.6452	13.9998	-0.638403	-2.28371	
8.30714	10.6452	14.0472	-0.637815	-2.33809	
8.27315	10.7493	14.0337	-0.638698	-2.47618	
8.20517	10.8048	14.0201	-0.64017	-2.59967	
8.23236	10.902	14.0608	-0.639287	-2.66963	
8.21877	10.9436	13.9998	-0.639287	-2.72487	
8.19837	11.0338	14.0472	-0.636931	-2.83547	
8.25276	11.0408	14.0472	-0.63487	-2.78803	
8.16438	11.131	14.0337	-0.633692	-2.96662	
8.26635	11.1588	14.0133	-0.632514	-2.89241	
8.25276	11.2073	14.0676	-0.630158	-2.95458	
8.13719	11.2559	14.0472	-0.627803	-3.11872	
8.13719	11.2698	14.0608	-0.625741	-3.1326	
8.0964	11.3045	14.0608	-0.624269	-3.20809	
8.1236	11.4294	14.0269	-0.623386	-3.30581	
8.15079	11.3878	14.0201	-0.622502	-3.23698	
8.1168	11.4433	14.0744	-0.621324	-3.32648	
8.04202	11.4225	14.0676	-0.618969	-3.38044	
8.11	11.3878	14.0405	-0.616907	-3.27776	
8.08281	11.4016	14.0472	-0.615435	-3.31884	
8.0964	11.3878	14.0947	-0.612196	-3.29136	
8.14399	11.3878	14.1015	-0.610135	-3.24377	
8.05562	11.36	14.0608	-0.607484	-3.30439	
7.94685	11.3322	14.0947	-0.606307	-3.3854	
8.13719	11.3739	14.0879	-0.603362	-3.23669	
8.15079	11.3392	14.0947	-0.599828	-3.1884	
8.00123	11.3461	14.0811	-0.595706	-3.3449	
8.08281	11.3184	14.1218	-0.590111	-3.23556	
8.04882	11.3531	14.1083	-0.583633	-3.30425	
8.1168	11.2837	14.1015	-0.578332	-3.16687	
8.15079	11.2282	14.115	-0.574504	-3.07737	
8.00803	11.1726	14.1083	-0.571559	-3.16461	
7.95365	11.1518	14.0472	-0.571559	-3.19817	
8.0964	11.0963	14.1218	-0.572148	-2.9999	
8.01483	11.1379	14.0811	-0.574504	-3.12311	
8.01483	11.0685	14.0608	-0.576565	-3.05372	
7.94005	11.0269	14.1015	-0.578332	-3.08686	
7.98764	10.9714	14.1218	-0.578627	-2.98376	
8.00803	10.9228	14.0744	-0.578921	-2.91479	
8.03522	10.9714	14.1083	-0.580982	-2.93617	
7.96044	10.9922	14.0947	-0.581571	-3.03177	
7.93325	10.9922	14.1218	-0.580982	-3.05896	
7.94685	11.0061	14.0947	-0.578921	-3.05924	
7.96724	11.0408	14.1422	-0.575976	-3.07355	
7.91966	11.0963	14.1218	-0.572443	-3.17665	
7.93325	11.1449	14.1354	-0.56832	-3.21163	
7.89926	11.1518	14.1354	-0.562725	-3.25256	
7.86527	11.2073	14.1218	-0.556836	-3.34206	
7.95365	11.2143	14.1489	-0.554186	-3.26063	
7.97404	11.2698	14.1625	-0.550947	-3.29575	
7.87887	11.3045	14.1761	-0.550652	-3.42562	
7.87887	11.3322	14.1693	-0.54918	-3.45338	
7.91966	11.3392	14.1625	-0.547119	-3.41953	
7.79729	11.3669	14.1625	-0.544763	-3.56965	
7.80409	11.4016	14.1693	-0.54388	-3.59755	
7.83128	11.3808	14.1964	-0.540346	-3.54954	
7.84488	11.4294	14.1557	-0.538874	-3.58452	
7.64094	11.3878	14.2438	-0.536223	-3.74683	
7.69532	11.4363	14.2167	-0.535046	-3.74102	
7.60695	11.4572	14.2167	-0.532395	-3.85021	
7.66133	11.4988	14.1828	-0.53004	-3.83746	
7.68852	11.4294	14.21	-0.5268	-3.74088	
7.70212	11.478	14.2032	-0.525034	-3.77586	
7.65453	11.4849	14.2506	-0.522678	-3.83038	
7.68852	11.4988	14.2506	-0.519733	-3.81027	
7.64774	11.5335	14.2032	-0.517672	-3.88576	
7.66133	11.5821	14.2303	-0.515905	-3.92074	
7.63414	11.5613	14.21	-0.514138	-3.92711	
7.71572	11.5613	14.1896	-0.51296	-3.84554	
7.66133	11.6376	14.2371	-0.511488	-3.97626	
7.62734	11.589	14.1625	-0.508838	-3.96167	
7.66133	11.6237	14.1964	-0.506777	-3.96238	
7.61375	11.5959	14.2167	-0.504126	-3.9822	
7.60015	11.6237	14.2371	-0.500593	-4.02356	
7.60695	11.6168	14.1896	-0.498237	-4.00982	
7.60695	11.6653	14.1964	-0.49647	-4.0584	
7.60015	11.6168	14.2032	-0.492642	-4.01662	
7.64094	11.6584	14.1828	-0.489698	-4.01747	
7.53217	11.6306	14.1761	-0.486458	-4.09848	
7.51857	11.6653	14.2032	-0.483514	-4.14677	
7.47779	11.6584	14.2303	-0.482041	-4.18062	
7.53217	11.6792	14.2506	-0.480275	-4.14705	
7.45739	11.6515	14.1422	-0.478508	-4.19407	
7.40301	11.6862	14.21	-0.476447	-4.28316	
7.4234	11.6862	14.21	-0.47468	-4.26276	
7.4438	11.7417	14.2032	-0.473207	-4.29788	
7.46419	11.7139	14.21	-0.470557	-4.24973	
7.40981	11.7139	14.1625	-0.468496	-4.30412	
7.47779	11.7417	14.21	-0.46614	-4.26389	
7.4302	11.7278	14.1828	-0.461429	-4.2976	
7.38261	11.8111	14.1896	-0.45819	-4.42846	
7.4302	11.818	14.21	-0.453478	-4.38781	
7.37582	11.8319	14.1828	-0.452006	-4.45608	
7.34183	11.8458	14.1422	-0.451122	-4.50395	
7.37582	11.8735	14.1557	-0.450533	-4.49771	
7.38941	11.8874	14.1625	-0.450533	-4.498	
7.36902	11.9013	14.21	-0.44965	-4.53227	
7.32823	11.9637	14.1489	-0.447883	-4.63551	
7.29424	11.9568	14.1693	-0.445233	-4.66257	
7.32143	11.9568	14.1693	-0.442583	-4.63537	
7.32823	12.054	14.1489	-0.43846	-4.72573	
7.28064	12.0609	14.1422	-0.435221	-4.78025	
7.23986	12.0678	14.1286	-0.431393	-4.82798	
7.18547	12.1442	14.1489	-0.429037	-4.9587	
7.27385	12.1789	14.1625	-0.426387	-4.90502	
7.21946	12.2413	14.1896	-0.424326	-5.02186	
7.26025	12.276	14.1896	-0.421676	-5.01577	
7.22626	12.2968	14.115	-0.41932	-5.07058	
7.23306	12.3732	14.115	-0.417259	-5.14012	
7.20587	12.394	14.1015	-0.413725	-5.18813	
7.17188	12.4287	14.1218	-0.409308	-5.25682	
7.14468	12.4911	14.1422	-0.403419	-5.34646	
7.14468	12.6022	14.1354	-0.399296	-5.4575	
7.11749	12.5536	14.1557	-0.395468	-5.43611	
7.0903	12.6577	14.1354	-0.39429	-5.5674	
7.13789	12.7063	14.1083	-0.393701	-5.56839	
7.00193	12.7687	14.1286	-0.393112	-5.7668	
6.98153	12.7895	14.1625	-0.390757	-5.80802	
7.05631	12.8659	14.115	-0.38899	-5.80957	
7.00193	12.8728	14.1286	-0.385162	-5.8709	
7.02912	12.8798	14.0947	-0.38045	-5.85064	
7.04271	12.9561	14.115	-0.375444	-5.91338	
7.04951	13.0463	14.1083	-0.370438	-5.9968	
7.02232	13.0394	14.1015	-0.365138	-6.01705	
7.04951	13.1018	14.1218	-0.359249	-6.05231	
7.00872	13.1088	14.0472	-0.355715	-6.10004	
6.99513	13.1573	14.1015	-0.352476	-6.16221	
6.99513	13.199	14.0472	-0.350415	-6.20385	
7.01552	13.2337	14.0879	-0.348648	-6.21816	
7.01552	13.2961	14.1015	-0.348059	-6.28061	
6.96114	13.2961	14.0676	-0.346881	-6.335	
6.90675	13.3516	14.0947	-0.34747	-6.4449	
7.04951	13.3447	14.0879	-0.348059	-6.2952	
6.96114	13.3516	14.0811	-0.347175	-6.39051	
6.93395	13.3863	14.0879	-0.345998	-6.4524	
6.88636	13.5182	14.0337	-0.34482	-6.63184	
6.94074	13.4627	14.0744	-0.343347	-6.52194	
6.87276	13.4557	14.054	-0.341581	-6.58298	
6.90675	13.5113	14.0201	-0.341581	-6.6045	
6.83877	13.5182	14.0337	-0.340108	-6.67942	
6.85917	13.5043	14.0472	-0.338047	-6.64515	
6.85917	13.5807	14.0337	-0.335397	-6.72149	
6.81158	13.539	14.0133	-0.33363	-6.72743	
6.82518	13.5807	14.0133	-0.333041	-6.75548	
6.84557	13.5876	14.0472	-0.33098	-6.74202	
6.79799	13.6015	13.993	-0.328035	-6.80349	
6.77759	13.65	13.9727	-0.324207	-6.87246	
6.80478	13.65	14.0201	-0.319201	-6.84527	
6.764	13.5945	13.993	-0.315667	-6.83054	
6.77759	13.6154	13.9659	-0.311545	-6.83776	
6.79799	13.6015	13.9523	-0.3086	-6.80349	
6.81158	13.6639	13.9794	-0.305656	-6.85235	
6.71641	13.6431	13.9727	-0.302711	-6.9267	
6.72321	13.6431	13.9184	-0.302711	-6.9199	
6.7436	13.6986	13.9591	-0.302711	-6.95502	
6.72321	13.5529	13.9727	-0.303005	-6.82969	
6.69602	13.5321	13.9117	-0.303005	-6.83606	
6.67562	13.5043	13.9659	-0.30065	-6.8287	
6.63483	13.3863	13.9117	-0.297411	-6.75151	
6.64843	13.3794	13.9659	-0.293877	-6.73098	
6.63483	13.3516	13.9252	-0.290343	-6.71682	
6.66882	13.2823	13.9049	-0.287104	-6.61343	
6.62804	13.2129	13.9184	-0.283865	-6.58482	
6.62804	13.2059	13.8913	-0.281509	-6.57788	
6.61444	13.1088	13.9523	-0.278859	-6.49433	
6.65523	13.1226	13.9184	-0.277681	-6.46742	
6.69602	13.1157	13.9252	-0.276798	-6.41969	
6.64843	12.9561	13.8778	-0.275031	-6.30767	
6.65523	12.9006	13.871	-0.274148	-6.24535	
6.65523	12.8381	13.871	-0.273264	-6.1829	
6.66203	12.7757	13.8574	-0.271497	-6.11364	
6.58045	12.7132	13.8167	-0.269731	-6.13276	
6.57365	12.6438	13.8845	-0.26708	-6.07017	
6.56685	12.5467	13.8506	-0.265019	-5.97981	
6.52607	12.4842	13.8235	-0.263252	-5.95814	
6.59405	12.4218	13.8167	-0.26178	-5.82771	
6.59405	12.4079	13.8506	-0.258246	-5.81383	
6.52607	12.3662	13.8574	-0.254124	-5.84017	
6.50567	12.2968	13.8235	-0.250001	-5.79117	
6.48528	12.3385	13.8439	-0.244995	-5.8532	
6.49887	12.2483	13.7557	-0.240284	-5.74939	
6.47848	12.2274	13.7896	-0.234983	-5.74897	
6.43089	12.2274	13.8032	-0.232039	-5.79655	
6.47848	12.276	13.7761	-0.228211	-5.79754	
6.3969	12.2274	13.8235	-0.227622	-5.83054	
6.4173	12.2413	13.7761	-0.226149	-5.82403	
6.43089	12.2552	13.7828	-0.225855	-5.82431	
6.36291	12.276	13.81	-0.225855	-5.91311	
6.37651	12.2483	13.7286	-0.224972	-5.87175	
6.45809	12.1789	13.7557	-0.224383	-5.72078	
6.32892	12.2136	13.7557	-0.222027	-5.88464	
6.30173	12.1927	13.7828	-0.219966	-5.89102	
6.23375	12.1927	13.7828	-0.216727	-5.959	
6.19296	12.1789	13.7761	-0.213487	-5.98591	
6.11139	12.1164	13.7489	-0.208776	-6.00503	
6.05021	12.0817	13.715	-0.202887	-6.03151	
5.90065	12.054	13.7896	-0.195819	-6.15331	
5.89385	12.0331	13.7422	-0.188752	-6.13929	
5.88026	12.0262	13.6947	-0.181096	-6.14594	
5.82587	11.9846	13.7218	-0.174029	-6.15869	
5.79188	11.9221	13.7218	-0.1649	-6.13022	
5.81907	11.8874	13.7015	-0.156066	-6.06833	
5.81228	11.7972	13.7218	-0.147527	-5.98492	
5.76469	11.7972	13.6608	-0.139871	-6.03251	
5.71031	11.7833	13.6744	-0.13192	-6.07301	
5.7307	11.7625	13.6676	-0.125736	-6.0318	
5.7307	11.6931	13.654	-0.120436	-5.9624	
5.7307	11.6515	13.654	-0.113957	-5.92077	
5.70351	11.6098	13.6269	-0.109246	-5.90632	
5.7171	11.6029	13.593	-0.10424	-5.88578	
5.60154	11.478	13.5998	-0.0980563	-5.87644	
5.56755	11.4919	13.5998	-0.0918724	-5.92431	
5.51996	11.4225	13.5591	-0.0848052	-5.9025	
5.48597	11.3947	13.5523	-0.0756768	-5.90873	
5.43839	11.3114	13.5591	-0.0674317	-5.87304	
5.3772	11.242	13.5117	-0.0574198	-5.86483	
5.33642	11.1379	13.4913	-0.0471134	-5.80152	
5.26844	11.1726	13.5117	-0.0368071	-5.9042	
5.11888	11.1102	13.4235	-0.0259118	-5.9913	
5.11888	10.9853	13.4574	-0.0176667	-5.86639	
5.01691	10.9436	13.4235	-0.00912718	-5.92672	
4.91494	10.9367	13.3896	-0.00147103	-6.02175	
4.84016	10.902	13.4032	0.00382938	-6.06183	
4.81977	10.8534	13.3422	0.00942426	-6.03365	
4.7246	10.7701	13.3151	0.0147247	-6.04555	
4.67021	10.7632	13.3354	0.0188472	-6.09299	
4.60223	10.7563	13.3422	0.0256199	-6.15403	
4.50026	10.5689	13.3422	0.0315093	-6.06864	
4.3779	10.5758	13.3489	0.038871	-6.19794	
4.24874	10.562	13.2269	0.0462327	-6.31322	
4.01761	10.5411	13.2269	0.0535943	-6.52354	
3.96322	10.5273	13.1795	0.0615449	-6.56404	
4.11278	10.4787	13.1591	0.0692011	-6.36591	
4.01761	10.4162	13.1252	0.0759738	-6.39862	
3.85445	10.3538	13.1388	0.0818632	-6.49932	
3.80687	10.333	13.0778	0.0868691	-6.52609	
3.91564	10.333	13.132	0.0912861	-6.41732	
4.01081	10.2566	13.0574	0.0951142	-6.24581	
4.07879	10.215	13.0439	0.0995312	-6.1362	
4.13317	10.2774	13.0574	0.104537	-6.14427	
4.27593	10.2705	12.9761	0.112193	-5.99457	
4.43228	10.1664	12.9083	0.120733	-5.73412	
4.61583	10.1733	12.9354	0.131923	-5.55752	
4.78578	10.1595	12.8676	0.145763	-5.37369	
4.88775	10.1178	12.8269	0.161075	-5.23008	
5.11208	10.1178	12.8066	0.180804	-5.00575	
5.24804	10.0901	12.8337	0.201417	-4.84203	
5.51996	10.0415	12.7456	0.223502	-4.52153	
5.7443	9.98598	12.7591	0.24647	-4.24168	
5.83267	10.0484	12.7049	0.269439	-4.21576	
6.05021	10.1248	12.6981	0.292113	-4.07456	
6.28814	10.097	12.6439	0.313314	-3.80888	
6.47168	10.0276	12.6032	0.334222	-3.55593	
6.61444	10.0068	12.6032	0.35454	-3.39236	
6.63483	10.0346	12.5354	0.37368	-3.39972	
6.88636	10.0068	12.549	0.391054	-3.12044	
7.0903	10.0207	12.4744	0.408427	-2.93038	
7.15148	10.0068	12.4608	0.423445	-2.85532	
7.27385	10.0068	12.4269	0.436696	-2.73295	
7.37582	9.97904	12.3795	0.448475	-2.60322	
7.4166	9.90964	12.4269	0.461431	-2.49304	
7.49138	10.0207	12.3185	0.472916	-2.5293	
7.4438	9.96516	12.2913	0.482927	-2.52137	
7.23986	9.93046	12.2642	0.493528	-2.69061	
7.21266	10.0276	12.21	0.502068	-2.81495	
7.35542	9.99292	12.2168	0.509724	-2.6375	
7.40301	9.96516	12.1557	0.515613	-2.56215	
7.50498	9.95822	12.1422	0.520914	-2.45324	
7.58655	9.92352	12.1015	0.523269	-2.33697	
7.55936	9.86107	12.0676	0.522975	-2.30171	
7.66813	9.87495	12.0676	0.522681	-2.20682	
7.73611	9.84025	12.0134	0.521503	-2.10414	
7.66133	9.85413	11.9524	0.518852	-2.1928	
7.74291	9.85413	11.9591	0.51738	-2.11122	
7.7769	9.80555	11.9117	0.515613	-2.02865	
7.87887	9.82637	11.8846	0.515319	-1.9475	
7.85847	9.81943	11.8642	0.515613	-1.96096	
7.81769	9.77085	11.81	0.516497	-1.95317	
7.83128	9.75004	11.7964	0.518852	-1.91875	
7.96044	9.6737	11.7761	0.52003	-1.71326	
7.90606	9.68758	11.7964	0.522092	-1.78152	
7.96044	9.7084	11.7422	0.524447	-1.74796	
7.88567	9.65288	11.7083	0.526214	-1.76722	
7.92645	9.62512	11.7151	0.526803	-1.69867	
7.93325	9.56961	11.6947	0.527686	-1.63636	
7.91966	9.59737	11.6541	0.528864	-1.67771	
7.85847	9.52797	11.6202	0.529748	-1.6695	
7.89246	9.53491	11.6269	0.532398	-1.64245	
7.7837	9.49327	11.5795	0.535637	-1.70958	
7.81769	9.4447	11.593	0.539465	-1.62701	
7.82448	9.39612	11.593	0.543293	-1.57164	
7.87887	9.36836	11.5795	0.546238	-1.48949	
7.7769	9.38224	11.5456	0.548888	-1.60534	
7.7633	9.26427	11.5117	0.550949	-1.50097	
7.7769	9.13242	11.4914	0.551833	-1.35552	
7.7769	9.06996	11.5049	0.554188	-1.29306	
7.84488	9.00751	11.471	0.556839	-1.16263	
7.85168	8.88953	11.4303	0.560372	-1.03786	
7.70212	8.79238	11.4303	0.563906	-1.09026	
7.72251	8.69523	11.41	0.565967	-0.972714	
7.85847	8.5842	11.4439	0.567145	-0.725722	
7.91966	8.47316	11.4168	0.568028	-0.553508	
8.00803	8.33437	11.41	0.570384	-0.326343	
7.96724	8.23028	11.3964	0.571857	-0.263038	
7.90606	8.09149	11.3964	0.573329	-0.18543	
7.97404	8.00128	11.3897	0.574801	-0.0272358	
7.94005	7.79309	11.3219	0.575979	0.14696	
7.97404	7.70288	11.4032	0.577157	0.271164	
8.02842	7.53633	11.3354	0.579218	0.492096	
8.1236	7.3906	11.3829	0.582163	0.732998	
8.17798	7.27263	11.3354	0.584224	0.905354	
8.17798	7.1269	11.3354	0.585696	1.05108	
8.24596	6.93259	11.3625	0.585108	1.31337	
8.32754	6.87707	11.3286	0.585696	1.45046	
8.30714	6.77298	11.3354	0.585696	1.53416	
8.38872	6.64807	11.3151	0.586285	1.74065	
8.4431	6.53704	11.3422	0.585991	1.90607	
8.47029	6.45376	11.3219	0.586874	2.01653	
8.4567	6.36355	11.349	0.585991	2.09315	
8.42271	6.27333	11.288	0.586285	2.14937	
8.48389	6.19006	11.2676	0.587463	2.29383	
8.52468	6.1623	11.2541	0.588052	2.36238	
8.57906	6.06515	11.3219	0.587463	2.51391	
8.52468	6.04433	11.3015	0.586285	2.48035	
8.53827	6.08597	11.2812	0.58393	2.45231	
8.55867	6.03739	11.2405	0.580985	2.52128	
8.61305	5.9333	11.2608	0.578629	2.67975	
8.65384	5.96799	11.2405	0.575685	2.68584	
8.68783	5.8986	11.2676	0.571268	2.78923	
8.60625	5.91248	11.2541	0.565967	2.69378	
8.65384	5.83614	11.2744	0.561845	2.8177	
8.58586	5.8292	11.2947	0.558606	2.75666	
8.56547	5.78063	11.2676	0.557133	2.78484	
8.56547	5.74593	11.2744	0.557133	2.81954	
8.61985	5.71817	11.2608	0.557133	2.90168	
8.57906	5.67653	11.2202	0.5589	2.90253	
8.70143	5.6002	11.2269	0.560667	3.10123	
8.72862	5.55162	11.2066	0.563611	3.17699	
8.66744	5.55856	11.2405	0.566262	3.10887	
8.74221	5.48917	11.2066	0.568028	3.25305	
8.783	5.44059	11.1998	0.569501	3.34241	
8.83059	5.3712	11.2066	0.567145	3.45939	
8.87817	5.3365	11.1592	0.563906	3.54168	
8.85778	5.29486	11.2337	0.559194	3.56292	
8.90536	5.24628	11.1931	0.552422	3.65908	
8.95975	5.19077	11.1931	0.546827	3.76898	
8.95295	5.19077	11.1863	0.541232	3.76218	
9.02773	5.13525	11.1795	0.536226	3.89248	
8.92576	5.05198	11.2202	0.532398	3.87378	
8.96655	5.02422	11.2337	0.528864	3.94233	
8.96655	4.92707	11.1998	0.526803	4.03948	
8.96655	4.92013	11.1795	0.526509	4.04642	
8.96655	4.82297	11.1863	0.526509	4.14357	
8.89857	4.78827	11.1795	0.527981	4.11029	
8.95295	4.73276	11.2202	0.52857	4.22019	
8.93935	4.72582	11.1659	0.52857	4.21354	
8.96655	4.64254	11.1253	0.526509	4.324	
8.98014	4.58009	11.1863	0.523564	4.40005	
9.02773	4.58703	11.2269	0.520619	4.4407	
9.02773	4.56621	11.1931	0.515908	4.46152	
9.00733	4.476	11.1998	0.509724	4.53134	
9.04812	4.476	11.2269	0.504129	4.57213	
9.15689	4.4413	11.2202	0.497651	4.71559	
9.1229	4.4413	11.2676	0.491467	4.6816	
9.1297	4.41354	11.2405	0.484694	4.71616	
9.19768	4.4066	11.2269	0.479688	4.79108	
9.23847	4.35108	11.2269	0.477038	4.88738	
9.19768	4.43436	11.2676	0.475271	4.76332	
9.08891	4.43436	11.2405	0.475271	4.65455	
9.1297	4.36496	11.2134	0.474388	4.76474	
9.18408	4.37884	11.2541	0.473799	4.80524	
9.1161	4.39272	11.3015	0.473504	4.72338	
9.21807	4.42048	11.2473	0.472327	4.79759	
9.1365	4.42048	11.2676	0.469676	4.71602	
9.1229	4.42742	11.288	0.466732	4.69548	
9.16369	4.38578	11.3422	0.462609	4.77791	
9.1297	4.39966	11.3761	0.458487	4.73004	
9.1297	4.38578	11.3354	0.452892	4.74392	
9.15689	4.44824	11.3897	0.448769	4.70865	
9.16369	4.46212	11.3693	0.444352	4.70157	
9.22487	4.46906	11.3897	0.441113	4.75581	
9.19768	4.51069	11.3964	0.437874	4.68698	
9.1161	4.52457	11.3829	0.434929	4.59153	
9.1161	4.55233	11.3897	0.432279	4.56377	
9.08211	4.54539	11.4032	0.430512	4.53672	
9.04812	4.55233	11.471	0.429923	4.49579	
8.94615	4.59397	11.4846	0.42904	4.35218	
8.96655	4.62173	11.4439	0.429334	4.34482	
9.00733	4.66336	11.4439	0.430218	4.34397	
8.91896	4.67724	11.4575	0.431396	4.24172	
8.90536	4.69112	11.4778	0.433457	4.21424	
8.92576	4.72582	11.4778	0.435224	4.19994	
8.90536	4.73276	11.5252	0.436402	4.17261	
8.94615	4.80909	11.4846	0.436991	4.13706	
8.95975	4.78827	11.532	0.437874	4.17147	
8.84418	4.80215	11.5591	0.439935	4.04203	
8.91216	4.83685	11.5456	0.44023	4.07531	
8.84418	4.83685	11.5795	0.440819	4.00733	
8.89857	4.91319	11.5795	0.44023	3.98538	
8.90536	4.94788	11.6269	0.44023	3.95748	
8.86458	4.95482	11.5998	0.44023	3.90975	
8.83738	4.96176	11.6134	0.441408	3.87562	
8.85778	4.934	11.6269	0.442291	3.92377	
8.87817	4.94788	11.593	0.44288	3.93029	
8.91216	5.01728	11.6676	0.443174	3.89488	
8.84418	4.98952	11.688	0.444647	3.85466	
8.83059	5.0381	11.6405	0.445236	3.79249	
8.76941	5.04504	11.6812	0.446119	3.72437	
8.76261	5.08667	11.6608	0.446414	3.67593	
8.7966	5.10055	11.688	0.446708	3.69604	
8.81019	5.08667	11.6608	0.446708	3.72352	
8.7762	5.10749	11.7083	0.447297	3.66871	
8.76261	5.08667	11.749	0.447297	3.67593	
8.783	5.12831	11.7219	0.447591	3.65469	
8.74221	5.10055	11.749	0.447297	3.64166	
8.74901	5.05198	11.7829	0.44818	3.69703	
8.7762	5.12137	11.749	0.448769	3.65483	
8.7966	5.16301	11.8507	0.448475	3.63359	
8.7966	5.10055	11.8235	0.448475	3.69604	
8.7762	5.07973	11.7964	0.447886	3.69647	
8.7966	5.11443	11.8303	0.447297	3.68216	
8.76941	5.10749	11.8439	0.446708	3.66191	
8.83738	5.09361	11.8235	0.446708	3.74377	
8.83059	5.12831	11.8642	0.446414	3.70228	
8.85098	5.10749	11.8371	0.447886	3.74349	
8.91896	5.07973	11.8507	0.449947	3.83923	
8.76941	5.09361	11.8168	0.45407	3.67579	
8.81019	5.08667	11.8913	0.458192	3.72352	
8.76261	5.06586	11.8981	0.463198	3.69675	
8.73542	5.04504	11.9456	0.467615	3.69038	
8.75581	5.0381	11.9117	0.471443	3.71771	
8.70822	4.95482	11.9456	0.474388	3.7534	
8.71502	4.94094	11.9117	0.476449	3.77408	
8.74221	4.83685	11.9456	0.477922	3.90536	
8.58586	4.72582	11.9388	0.479394	3.86004	
8.69463	4.66336	11.9388	0.479688	4.03126	
8.59946	4.56621	11.9049	0.480277	4.03325	
8.57226	4.48294	11.9524	0.479394	4.08933	
8.58586	4.34415	11.9524	0.479394	4.24171	
8.55187	4.22617	11.993	0.479983	4.3257	
8.53148	4.11514	11.9591	0.483222	4.41633	
8.47709	4.04575	11.9456	0.486756	4.43135	
8.48389	3.94859	11.9524	0.492056	4.5353	
8.51108	3.74735	11.9863	0.499123	4.76374	
8.49069	3.58774	11.9591	0.504424	4.90295	
8.40911	3.46976	12.0134	0.509429	4.93935	
8.4567	3.33097	11.9863	0.514141	5.12572	
8.4567	3.16443	11.9659	0.518558	5.29227	
8.38872	3.03951	11.9863	0.523858	5.3492	
8.38872	2.85215	11.993	0.529453	5.53657	
8.41591	2.75499	11.9863	0.535048	5.66092	
8.4567	2.58151	11.993	0.53976	5.87519	
8.42951	2.44272	12.0202	0.543588	5.98679	
8.4431	2.3178	12.0134	0.548888	6.1253	
8.4635	2.15126	11.9727	0.552716	6.31224	
8.47709	1.95695	11.9795	0.55625	6.52014	
8.53827	1.92225	11.9659	0.560078	6.61602	
8.48389	1.81816	11.9795	0.563906	6.66573	
8.55187	1.70019	11.9591	0.569501	6.85168	
8.49069	1.60303	11.9795	0.575096	6.88765	
8.42951	1.54058	11.9795	0.579807	6.88893	
8.42951	1.40873	11.9863	0.58393	7.02078	
8.42271	1.32545	11.993	0.586874	7.09726	
8.34113	1.34627	11.9863	0.590702	6.99486	
8.29355	1.20054	11.9727	0.593353	7.09301	
8.36153	1.11727	11.9388	0.595414	7.24426	
8.18478	1.05481	12.0134	0.597475	7.12997	
8.21197	0.978475	11.9863	0.599831	7.23349	
8.33433	0.888261	11.993	0.601892	7.44607	
8.16438	0.777229	12.0676	0.604542	7.38715	
8.17118	0.700894	12.0269	0.608959	7.47029	
8.19158	0.631499	12.0066	0.613376	7.56008	
8.18478	0.520467	11.9998	0.619266	7.66431	
8.15079	0.416374	12.0134	0.62545	7.73441	
8.24596	0.312281	12.0269	0.631633	7.93368	
8.25956	0.215127	12.0269	0.636639	8.04443	
8.36832	0.0971555	11.9727	0.641056	8.27117	
8.38192	-0.00693738	12.0541	0.644295	8.38886	
8.34793	-0.11103	12.0202	0.647535	8.45896	
8.4363	-0.180426	12.0473	0.649301	8.61673	
8.52468	-0.235942	12.0202	0.650479	8.76062	
8.49069	-0.360853	12.0608	0.650774	8.85154	
8.53827	-0.444127	12.0405	0.649596	8.9824	
8.49069	-0.54822	12.0337	0.648124	9.03891	
8.50428	-0.666192	11.993	0.64724	9.17048	
8.53827	-0.749467	12.0134	0.646651	9.28774	
8.58586	-0.85356	12.0405	0.646651	9.43942	
8.56547	-0.964592	12.0337	0.645473	9.53006	
8.57226	-1.09644	12.0337	0.645179	9.66871	
8.57906	-1.1589	12.0405	0.64459	9.73796	
8.60625	-1.24217	12.0812	0.644001	9.84843	
8.58586	-1.33933	12.0269	0.643707	9.92519	
8.72862	-1.37402	12.0812	0.643412	10.1026	
8.86458	-1.44342	12.1218	0.644001	10.308	
8.81019	-1.61691	12.088	0.643412	10.4271	
8.98014	-1.66548	12.1218	0.641351	10.6456	
9.00733	-1.70712	12.1218	0.63929	10.7145	
9.00054	-1.82509	12.1286	0.636345	10.8256	
9.05492	-1.84591	12.1083	0.631339	10.9008	
9.03453	-1.91531	12.1354	0.625744	10.9498	
9.1093	-1.95694	12.1218	0.618382	11.0662	
9.1161	-1.99858	12.21	0.610432	11.1147	
9.20448	-2.06104	12.1625	0.601598	11.2655	
9.08211	-2.10267	12.2371	0.592764	11.1848	
9.07531	-2.15819	12.2168	0.58393	11.2335	
9.1297	-2.22759	12.2642	0.575096	11.3573	
9.23167	-2.26922	12.2642	0.567734	11.5009	
9.20448	-2.2831	12.2778	0.560667	11.4876	
9.19088	-2.35944	12.3049	0.553305	11.5503	
9.26566	-2.35944	12.2981	0.545354	11.6251	
9.27925	-2.38026	12.3795	0.538287	11.6595	
9.23167	-2.39413	12.3388	0.531809	11.6258	
9.24526	-2.38026	12.3863	0.526803	11.6255	
9.31324	-2.38719	12.4201	0.520914	11.7004	
9.42881	-2.47741	12.3998	0.515319	11.9062	
9.39482	-2.44271	12.4066	0.508546	11.8375	
9.38122	-2.46353	12.4608	0.502951	11.8448	
9.35403	-2.49129	12.4744	0.497062	11.8453	
9.40842	-2.51905	12.5286	0.490584	11.9275	
9.41521	-2.47047	12.4812	0.484694	11.8857	
9.40842	-2.42883	12.5557	0.478216	11.8372	
9.38802	-2.44271	12.5625	0.472327	11.8307	
9.40842	-2.44271	12.5761	0.466143	11.8511	
9.42201	-2.40801	12.61	0.459959	11.83	
9.42881	-2.45659	12.6574	0.453481	11.8854	
9.4492	-2.42189	12.671	0.447591	11.8711	
9.44241	-2.47741	12.6981	0.440524	11.9198	
9.4492	-2.38026	12.6981	0.43434	11.8295	
9.40842	-2.39413	12.6913	0.428451	11.8026	
9.456	-2.36638	12.7388	0.421973	11.8224	
9.36083	-2.38026	12.7185	0.416967	11.7411	
9.36083	-2.37332	12.7998	0.412255	11.7341	
9.38802	-2.33168	12.8201	0.407249	11.7197	
9.36763	-2.2831	12.8405	0.402538	11.6507	
9.35403	-2.31086	12.9015	0.399299	11.6649	
9.40162	-2.22759	12.854	0.396649	11.6292	
9.33364	-2.2484	12.9083	0.394587	11.582	
9.31324	-2.17207	12.9286	0.391348	11.4853	
9.35403	-2.24146	12.9218	0.388403	11.5955	
9.36763	-2.17207	12.9557	0.387226	11.5397	
9.35403	-2.13737	13.01	0.383103	11.4914	
9.42201	-2.13737	13.0168	0.380158	11.5594	
9.35403	-2.10267	13.01	0.376625	11.4567	
9.34044	-2.10267	13.0439	0.372208	11.4431	
9.34723	-2.01246	13.0506	0.369558	11.3597	
9.39482	-2.02634	13.071	0.367496	11.4212	
9.42881	-2.01246	13.0303	0.365435	11.4413	
9.35403	-1.97776	13.071	0.362785	11.3318	
9.35403	-1.95694	13.0981	0.358073	11.311	
9.34723	-1.92225	13.1388	0.355129	11.2695	
9.36763	-1.97082	13.1252	0.350712	11.3385	
9.38802	-1.90143	13.1456	0.347473	11.2895	
9.33364	-1.90837	13.1862	0.345411	11.242	
9.26566	-1.91531	13.1862	0.343939	11.181	
9.28605	-1.87367	13.2473	0.342467	11.1597	
9.32684	-1.89449	13.1795	0.340994	11.2213	
9.32684	-1.83897	13.2744	0.339816	11.1658	
9.36083	-1.77652	13.3083	0.338639	11.1373	
9.27925	-1.78346	13.2337	0.337166	11.0627	
9.34723	-1.82509	13.3354	0.335988	11.1723	
9.38122	-1.7557	13.3218	0.334222	11.1369	
9.34723	-1.73488	13.3761	0.331277	11.0821	
9.33364	-1.74182	13.3896	0.329216	11.0755	
9.35403	-1.69324	13.3761	0.325388	11.0473	
9.34044	-1.72794	13.4032	0.321854	11.0684	
9.30645	-1.70712	13.4303	0.319498	11.0136	
9.22487	-1.69324	13.4303	0.316848	10.9181	
9.36083	-1.67242	13.471	0.31567	11.0333	
9.32684	-1.76264	13.4778	0.314787	11.0895	
9.31324	-1.7904	13.5049	0.313609	11.1036	
9.26566	-1.81815	13.4845	0.312725	11.0838	
9.32684	-1.85285	13.4981	0.310664	11.1797	
9.35403	-1.83203	13.5252	0.309486	11.1861	
9.38122	-1.94307	13.5659	0.308603	11.3243	
9.40842	-1.9847	13.5727	0.307719	11.3931	
9.4628	-2.0888	13.5795	0.307131	11.5516	
9.51718	-2.18595	13.5998	0.305364	11.7031	
9.50359	-2.21371	13.5862	0.303008	11.7173	
9.58516	-2.2831	13.6066	0.300063	11.8683	
9.72112	-2.3525	13.6066	0.29653	12.0736	
9.70073	-2.44271	13.6134	0.291818	12.1434	
9.68034	-2.53986	13.6066	0.286812	12.2202	
9.82989	-2.63008	13.6879	0.280923	12.46	
9.75511	-2.66478	13.715	0.275623	12.4199	
9.77551	-2.78969	13.7015	0.269144	12.5652	
9.75511	-2.85214	13.6947	0.263549	12.6073	
9.69393	-2.97705	13.7489	0.257955	12.671	
9.72792	-3.01869	13.6879	0.251771	12.7466	
9.7959	-3.10197	13.7489	0.245881	12.8979	
9.83669	-3.17136	13.7761	0.239403	13.0081	
9.74832	-3.2477	13.7354	0.232336	12.996	
9.73472	-3.33791	13.7557	0.224091	13.0726	
9.77551	-3.38649	13.7286	0.215846	13.162	
9.8095	-3.41424	13.8167	0.20819	13.2237	
9.77551	-3.48364	13.81	0.199356	13.2591	
9.77551	-3.442	13.81	0.191994	13.2175	
9.7959	-3.51834	13.8303	0.184632	13.3142	
9.78231	-3.49752	13.8167	0.178448	13.2798	
9.83669	-3.50446	13.871	0.172854	13.3411	
9.89107	-3.52528	13.8574	0.167259	13.4164	
9.95226	-3.44894	13.8913	0.163136	13.4012	
9.89787	-3.49058	13.8778	0.159014	13.3885	
9.97265	-3.49058	13.932	0.153713	13.4632	
8.21877	-3.44894	13.9117	0.148413	11.6677	
7.73611	-3.41424	13.9117	0.14164	11.1504	
8.54507	-3.4073	13.9523	0.133395	11.9524	
8.1168	-3.40037	13.9659	0.121911	11.5172	
7.47779	-3.42812	13.9252	0.104537	10.9059	
7.11069	-3.35873	13.9727	0.083041	10.4694	
7.11069	-3.39343	13.9049	0.0550667	10.5041	
7.39621	-3.42812	13.9794	0.0185527	10.8243	
7.64774	-3.40037	13.9184	-0.0265007	11.0481	
7.45059	-3.43506	13.9455	-0.0806827	10.8857	
7.23306	-3.442	13.9998	-0.139871	10.6751	
7.28744	-3.46282	13.9591	-0.199058	10.7503	
7.49818	-3.442	14.0337	-0.253829	10.9402	
7.46419	-3.42812	13.9455	-0.300355	10.8923	
7.34183	-3.442	13.9794	-0.336869	10.7838	
7.28064	-3.43506	13.9727	-0.365138	10.7157	
7.19907	-3.46282	13.9523	-0.381334	10.6619	
7.11749	-3.48364	14.0201	-0.388695	10.6011	
7.11749	-3.5114	13.9794	-0.388695	10.6289	
7.02232	-3.52528	13.993	-0.384278	10.5476	
6.90675	-3.43506	13.9455	-0.3778	10.3418	
7.0835	-3.5114	13.9659	-0.370438	10.5949	
7.01552	-3.56691	13.9727	-0.361899	10.5824	
6.92715	-3.55304	13.9998	-0.353359	10.4802	
6.77079	-3.55997	14.0066	-0.345998	10.3308	
6.92715	-3.60161	13.993	-0.338341	10.5288	
6.91355	-3.5461	14.0472	-0.332452	10.4596	
6.98833	-3.59467	13.9523	-0.328624	10.583	
7.02912	-3.55997	13.9591	-0.326268	10.5891	
6.96114	-3.60855	13.9862	-0.323029	10.5697	
6.92715	-3.60855	14.0066	-0.321557	10.5357	
7.0971	-3.60855	13.9591	-0.321851	10.7056	
7.06991	-3.62243	13.9523	-0.323618	10.6923	
7.0971	-3.56691	14.0133	-0.326268	10.664	
7.17867	-3.5461	13.9523	-0.329213	10.7248	
7.21266	-3.53222	13.9794	-0.333924	10.7449	
7.22626	-3.49058	13.9659	-0.339814	10.7168	
7.28744	-3.53916	13.9727	-0.344525	10.8266	
7.28064	-3.48364	13.9184	-0.348942	10.7643	
7.23986	-3.48364	13.9388	-0.352181	10.7235	
7.23986	-3.45588	13.9184	-0.353948	10.6957	
7.31463	-3.33097	13.9659	-0.357776	10.6456	
7.30784	-3.36567	13.9862	-0.36131	10.6735	
7.39621	-3.28933	13.9659	-0.365432	10.6855	
7.32143	-3.23382	13.9998	-0.367494	10.5552	
7.4234	-3.19218	13.9794	-0.368966	10.6156	
7.50498	-3.1436	13.9659	-0.369849	10.6486	
7.45059	-3.08115	13.9998	-0.371322	10.5317	
7.4234	-3.06033	13.932	-0.3725	10.4837	
7.4438	-2.95624	13.9252	-0.376328	10.4	
7.49818	-2.85908	13.8845	-0.381039	10.3573	
7.59335	-2.86602	13.993	-0.385751	10.4594	
7.53897	-2.76193	13.993	-0.391051	10.3009	
7.57296	-2.6509	14.0066	-0.397235	10.2239	
7.60015	-2.57456	13.9455	-0.402535	10.1747	
7.57976	-2.51905	13.932	-0.407541	10.0988	
7.64094	-2.41495	13.9455	-0.412547	10.0559	
7.67493	-2.34556	13.9455	-0.417553	10.0205	
7.72251	-2.25534	13.932	-0.421676	9.97786	
7.7565	-2.15125	13.9591	-0.426093	9.90775	
7.74291	-2.06798	13.9659	-0.431099	9.81088	
7.73611	-2.00552	13.9523	-0.436988	9.74163	
7.83808	-1.87367	13.993	-0.444055	9.71175	
7.7701	-1.85285	13.9523	-0.451122	9.62295	
7.7633	-1.70018	13.9252	-0.457306	9.46348	
7.85168	-1.60303	13.9252	-0.461723	9.4547	
7.85847	-1.492	13.9388	-0.464962	9.35047	
7.94685	-1.36708	13.9117	-0.467613	9.31393	
7.89926	-1.31851	13.9117	-0.469674	9.21777	
7.92645	-1.22135	13.8981	-0.472618	9.14781	
8.01483	-1.04093	13.8981	-0.475563	9.05575	
8.15079	-0.950713	13.8981	-0.479391	9.1015	
8.06241	-0.83968	13.9252	-0.484103	8.90209	
8.16438	-0.763346	13.8574	-0.490875	8.92773	
8.30034	-0.603737	13.8845	-0.498532	8.90408	
8.34793	-0.444127	13.8981	-0.50766	8.79206	
8.33433	-0.333095	13.8303	-0.516494	8.66743	
8.32074	-0.25676	13.8574	-0.525034	8.5775	
8.25956	-0.0208164	13.8371	-0.532395	8.28037	
8.40911	0.0832765	13.81	-0.538579	8.32583	
8.31394	0.187369	13.7693	-0.544763	8.12657	
8.36153	0.277583	13.7489	-0.553891	8.08394	
8.42271	0.47189	13.7828	-0.56302	7.95082	
8.4431	0.624559	13.8167	-0.571854	7.81854	
8.4567	0.714773	13.8167	-0.578921	7.74192	
8.47029	0.881322	13.7625	-0.583338	7.58897	
8.4431	0.985415	13.7828	-0.589522	7.45769	
8.48389	1.13808	13.7489	-0.594822	7.3458	
8.50428	1.263	13.7489	-0.600712	7.24129	
8.50428	1.38791	13.7489	-0.608368	7.11638	
8.59946	1.53364	13.7422	-0.614846	7.06582	
8.66064	1.67937	13.7625	-0.621324	6.98127	
