C:\DOCUMENTS AND SETTINGS\ADMINISTRATOR\DESKTOP\EFFORT\PATIENT 10\ACQ_3.7\EFFORT10_SBT_AND_POSTEXTUBATION_OLD.ACQ
5.000000 msec/sample
5 channels
Paw
cmH2O
Peso
cmH2O
Pgas
cmH2O
Flow
L/s
PL
cmH2O
CH1	CH2	CH3	CH4	CH40	
83410	83410	83410	83410	83410	
0.53277	22.2475	14.4834	-0.332727	-21.7148	
0.53277	22.3436	14.4699	-0.327711	-21.8108	
0.546431	22.3847	14.5171	-0.322382	-21.8383	
0.566922	22.4328	14.5036	-0.31862	-21.8658	
0.642058	22.5357	14.4969	-0.315171	-21.8936	
0.505448	22.5768	14.5103	-0.311723	-22.0714	
0.443973	22.666	14.4699	-0.307647	-22.222	
0.519109	22.6454	14.4767	-0.304826	-22.1263	
0.580583	22.7483	14.4295	-0.302004	-22.1677	
0.525939	22.7415	14.4295	-0.298869	-22.2155	
0.457634	22.8238	14.4767	-0.293853	-22.3662	
0.484956	22.8375	14.4969	-0.289151	-22.3526	
0.423482	22.8718	14.4565	-0.283508	-22.4483	
0.628397	22.8855	14.4969	-0.278805	-22.2571	
0.450804	22.8512	14.5036	-0.275356	-22.4004	
0.587414	22.865	14.4901	-0.273162	-22.2775	
0.546431	22.8512	14.4969	-0.271908	-22.3048	
0.53277	22.8375	14.5103	-0.269086	-22.3047	
0.5396	22.8307	14.4363	-0.266892	-22.2911	
0.5396	22.7895	14.4699	-0.264697	-22.2499	
0.368838	22.714	14.4699	-0.261562	-22.3452	
0.498617	22.714	14.4497	-0.257173	-22.2154	
0.450804	22.666	14.4969	-0.252784	-22.2152	
0.430312	22.6317	14.4565	-0.249649	-22.2014	
0.505448	22.5974	14.4565	-0.246828	-22.092	
0.430312	22.5014	14.4497	-0.243693	-22.0711	
0.525939	22.4945	14.4497	-0.239931	-21.9686	
0.566922	22.4328	14.4363	-0.236169	-21.8658	
0.375668	22.3504	14.4901	-0.233034	-21.9748	
0.348346	22.3573	14.443	-0.23178	-22.009	
0.430312	22.3024	14.4497	-0.229272	-21.8721	
0.382499	22.275	14.416	-0.228958	-21.8925	
0.464465	22.3024	14.4699	-0.228645	-21.838	
0.39616	22.3299	14.4295	-0.228331	-21.9337	
0.375668	22.3024	14.4632	-0.227077	-21.9268	
0.341516	22.3299	14.4632	-0.22551	-21.9883	
0.484956	22.3985	14.4699	-0.224569	-21.9135	
0.484956	22.4053	14.4565	-0.223942	-21.9204	
0.437143	22.3504	14.4497	-0.222061	-21.9133	
0.348346	22.3985	14.4497	-0.21924	-22.0501	
0.314194	22.3367	14.4699	-0.214851	-22.0225	
0.389329	22.3024	14.4497	-0.210148	-21.9131	
0.519109	22.2956	14.416	-0.204819	-21.7765	
0.293702	22.2407	14.4497	-0.20137	-21.947	
0.321024	22.2613	14.4093	-0.199176	-21.9402	
0.245889	22.275	14.4363	-0.196668	-22.0291	
0.286872	22.2132	14.4565	-0.193846	-21.9264	
0.280041	22.1652	14.3958	-0.190711	-21.8852	
0.334685	22.076	14.416	-0.184755	-21.7413	
0.368838	22.028	14.4026	-0.179739	-21.6592	
0.341516	21.9114	14.4228	-0.174723	-21.5699	
0.355177	21.8291	14.4093	-0.169393	-21.4739	
0.382499	21.733	14.4093	-0.164377	-21.3505	
0.362007	21.6713	14.3487	-0.160615	-21.3093	
0.273211	21.5821	14.3352	-0.157167	-21.3089	
0.334685	21.4929	14.3689	-0.155913	-21.1582	
0.443973	21.4723	14.315	-0.157167	-21.0284	
0.362007	21.4037	14.2746	-0.160302	-21.0417	
0.314194	21.3351	14.2679	-0.164064	-21.0209	
0.362007	21.2665	14.2207	-0.169707	-20.9045	
0.409821	21.2871	14.2342	-0.173782	-20.8773	
0.368838	21.2803	14.2072	-0.175977	-20.9114	
0.362007	21.2117	14.2072	-0.176604	-20.8496	
0.334685	21.1705	14.1399	-0.176917	-20.8358	
0.280041	21.2117	14.1736	-0.174723	-20.9316	
0.280041	21.2391	14.1601	-0.173782	-20.9591	
0.423482	21.2665	14.1332	-0.171588	-20.8431	
0.409821	21.2597	14.0927	-0.17002	-20.8499	
0.273211	21.246	14.1466	-0.168453	-20.9727	
0.321024	21.3008	14.0725	-0.168139	-20.9798	
0.362007	21.3626	14.1062	-0.167512	-21.0006	
0.286872	21.3763	14.0927	-0.166572	-21.0894	
0.225397	21.4312	14.1062	-0.167199	-21.2058	
0.327855	21.4518	14.0927	-0.168139	-21.1239	
0.307363	21.4655	14.0591	-0.168766	-21.1581	
0.314194	21.5752	14.0793	-0.171274	-21.261	
0.26638	21.637	14.0321	-0.172842	-21.3706	
0.286872	21.781	14.0523	-0.172215	-21.4942	
0.382499	21.7879	14.0052	-0.171274	-21.4054	
0.348346	21.8359	14.0052	-0.168766	-21.4876	
0.239058	21.9388	14.0187	-0.165004	-21.6998	
0.218567	22.076	13.9985	-0.162496	-21.8575	
0.245889	22.1446	13.9446	-0.159675	-21.8987	
0.245889	22.2475	13.9985	-0.155913	-22.0016	
0.25955	22.3916	13.9648	-0.153718	-22.1321	
0.355177	22.4602	13.9917	-0.151837	-22.105	
0.280041	22.6248	13.9311	-0.151524	-22.3448	
0.177584	22.7277	13.9513	-0.149956	-22.5502	
0.341516	22.8444	13.8907	-0.149329	-22.5029	
0.245889	22.9541	13.8974	-0.148075	-22.7082	
0.177584	23.0639	13.8503	-0.147135	-22.8863	
0.12294	23.1942	13.8637	-0.147448	-23.0713	
0.327855	23.352	13.8974	-0.147762	-23.0242	
0.286872	23.4892	13.857	-0.147762	-23.2024	
0.273211	23.5921	13.857	-0.148702	-23.3189	
0.25955	23.7705	13.8368	-0.147135	-23.5109	
0.163923	23.9077	13.7897	-0.146194	-23.7438	
0.293702	24.0723	13.8368	-0.14494	-23.7786	
0.314194	24.2576	13.8435	-0.142432	-23.9434	
0.368838	24.3811	13.8099	-0.140865	-24.0122	
0.355177	24.532	13.8031	-0.139924	-24.1768	
0.211736	24.7241	13.8166	-0.140551	-24.5123	
0.341516	24.8818	13.7897	-0.141178	-24.5403	
0.273211	25.0739	13.7762	-0.143059	-24.8007	
0.307363	25.2386	13.8435	-0.144627	-24.9312	
0.25955	25.4032	13.8166	-0.147135	-25.1437	
0.409821	25.5061	13.8031	-0.147762	-25.0963	
0.0751263	25.6708	13.8637	-0.147448	-25.5956	
0.218567	25.7599	13.8301	-0.146194	-25.5414	
0.26638	25.8148	13.8099	-0.144313	-25.5484	
0.211736	25.8697	13.8301	-0.141805	-25.658	
0.198075	25.9452	13.8166	-0.13867	-25.7471	
0.286872	26.0069	13.8166	-0.135849	-25.72	
0.218567	26.0069	13.8301	-0.133027	-25.7883	
0.170753	26.0275	13.7964	-0.131773	-25.8567	
0.280041	25.9795	13.7964	-0.129892	-25.6994	
0.239058	25.8903	13.7964	-0.129579	-25.6512	
0.184414	25.8285	13.7694	-0.129265	-25.6441	
0.327855	25.7599	13.7829	-0.129579	-25.4321	
0.307363	25.6708	13.8099	-0.130206	-25.3634	
0.12294	25.5198	13.7627	-0.13146	-25.3969	
0.225397	25.465	13.7492	-0.131773	-25.2396	
0.307363	25.3483	13.7762	-0.132087	-25.041	
0.198075	25.1974	13.8233	-0.131146	-24.9993	
0.334685	25.1151	13.7694	-0.1324	-24.7804	
0.314194	24.9299	13.7762	-0.1324	-24.6157	
0.232228	24.8613	13.7492	-0.133341	-24.629	
0.232228	24.7995	13.7627	-0.133654	-24.5673	
0.26638	24.6555	13.7492	-0.133027	-24.3891	
0.300533	24.6006	13.7694	-0.132714	-24.3	
0.25955	24.4085	13.7425	-0.13146	-24.1489	
0.25955	24.3536	13.7694	-0.130833	-24.0941	
0.280041	24.2713	13.7762	-0.130833	-23.9912	
0.198075	24.1615	13.7829	-0.130519	-23.9635	
0.184414	24.0655	13.8031	-0.129265	-23.8811	
0.232228	23.9969	13.7627	-0.127698	-23.7647	
0.232228	23.9214	13.7829	-0.12613	-23.6892	
0.184414	23.7979	13.7627	-0.124563	-23.6135	
0.245889	23.7362	13.8166	-0.124563	-23.4903	
0.334685	23.6402	13.8435	-0.124563	-23.3055	
0.314194	23.5373	13.7964	-0.123309	-23.2231	
0.0204823	23.4686	13.7897	-0.123622	-23.4482	
0.157092	23.3863	13.8301	-0.122682	-23.2292	
0.204906	23.304	13.8031	-0.121114	-23.0991	
0.211736	23.2834	13.8435	-0.120174	-23.0717	
0.109279	23.1256	13.8099	-0.11986	-23.0164	
0.225397	23.0639	13.8233	-0.119233	-22.8385	
0.25955	23.0296	13.8301	-0.118293	-22.77	
0.150262	22.9404	13.8974	-0.117352	-22.7902	
0.163923	22.8787	13.8974	-0.116098	-22.7148	
0.143431	22.8307	13.8705	-0.114217	-22.6872	
0.232228	22.7552	13.8907	-0.112963	-22.523	
0.177584	22.6797	13.8301	-0.111709	-22.5021	
0.225397	22.6454	13.8772	-0.110769	-22.42	
0.232228	22.57	13.8772	-0.109828	-22.3377	
0.157092	22.5082	13.8772	-0.109201	-22.3511	
0.136601	22.5288	13.8839	-0.108261	-22.3922	
0.25955	22.5219	13.8907	-0.107947	-22.2624	
0.211736	22.4671	13.9109	-0.108261	-22.2553	
0.0751263	22.419	13.9109	-0.107634	-22.3439	
0.177584	22.419	13.9311	-0.108261	-22.2415	
0.0682958	22.4465	13.9378	-0.106066	-22.3782	
0.150262	22.4259	13.9648	-0.104812	-22.2756	
0.116109	22.4671	13.958	-0.104812	-22.351	
0.198075	22.4602	13.9985	-0.103872	-22.2621	
0.143431	22.4465	13.9648	-0.102304	-22.3031	
0.184414	22.4945	13.9513	-0.100423	-22.3101	
0.143431	22.57	13.9985	-0.0982289	-22.4265	
0.204906	22.6454	14.0187	-0.0966614	-22.4405	
0.150262	22.6591	14.0254	-0.0935264	-22.5089	
0.143431	22.714	14.0052	-0.0910184	-22.5706	
0.157092	22.7483	14.0187	-0.0891374	-22.5912	
0.157092	22.7483	14.0389	-0.0872564	-22.5912	
0.102448	22.7826	14.0389	-0.0853754	-22.6802	
0.150262	22.8032	14.0995	-0.0850619	-22.6529	
0.116109	22.8375	14.0995	-0.0838079	-22.7214	
0.184414	22.8032	14.1197	-0.0841214	-22.6188	
0.211736	22.7895	14.1197	-0.0841214	-22.5778	
0.102448	22.7964	14.0927	-0.0847484	-22.6939	
0.109279	22.7689	14.113	-0.0866294	-22.6596	
0.150262	22.6866	14.1668	-0.0869429	-22.5363	
0.177584	22.7072	14.1197	-0.0875699	-22.5296	
0.245889	22.6729	14.1466	-0.0888239	-22.427	
0.204906	22.6248	14.1466	-0.0900779	-22.4199	
0.0682958	22.618	14.2072	-0.0922724	-22.5497	
0.116109	22.5357	14.2072	-0.0925859	-22.4196	
0.26638	22.4945	14.2005	-0.0941534	-22.2281	
0.0614653	22.4122	14.214	-0.0957209	-22.3507	
0.191245	22.3573	14.2544	-0.0966614	-22.1661	
0.177584	22.2818	14.2409	-0.0982289	-22.1043	
0.177584	22.2818	14.2881	-0.0997964	-22.1043	
0.184414	22.1789	14.2409	-0.101677	-21.9945	
0.157092	22.1241	14.2746	-0.102618	-21.967	
0.0956178	22.0143	14.2275	-0.103872	-21.9187	
0.218567	21.9594	14.2544	-0.104499	-21.7408	
0.26638	21.8565	14.2611	-0.104812	-21.5901	
0.12977	21.8565	14.3083	-0.104185	-21.7267	
0.116109	21.8359	14.3352	-0.102931	-21.7198	
0.0682958	21.8496	14.3015	-0.102618	-21.7814	
0.191245	21.7742	14.315	-0.10105	-21.5829	
0.109279	21.8702	14.2746	-0.0991694	-21.7609	
0.136601	21.8016	14.315	-0.0976019	-21.665	
0.177584	21.8634	14.3285	-0.0938399	-21.6858	
0.143431	21.8016	14.3285	-0.0919589	-21.6582	
0.116109	21.7605	14.3083	-0.0897644	-21.6444	
0.109279	21.7262	14.3689	-0.0872564	-21.6169	
0.273211	21.7673	14.3622	-0.0860024	-21.4941	
0.204906	21.7056	14.3352	-0.0844349	-21.5007	
0.102448	21.5684	14.3891	-0.0841214	-21.4659	
0.0887873	21.589	14.3487	-0.0834944	-21.5002	
0.12977	21.5752	14.3958	-0.0828674	-21.4455	
0.150262	21.5478	14.3824	-0.0825539	-21.3975	
0.0614653	21.5547	14.3958	-0.0816134	-21.4932	
0.0478043	21.4518	14.4026	-0.0794189	-21.404	
0.116109	21.3694	14.4228	-0.0769109	-21.2533	
-0.0136702	21.294	14.3824	-0.0744029	-21.3076	
0.0956178	21.1293	14.4026	-0.0706409	-21.0337	
0.0887873	21.0264	14.4632	-0.0671924	-20.9376	
0.0546348	20.9372	14.4363	-0.0621763	-20.8826	
0.0682958	20.8961	14.3756	-0.0581008	-20.8278	
0.225397	20.8412	14.3756	-0.0552793	-20.6158	
0.239058	20.6628	14.4295	-0.0540253	-20.4238	
0.0887873	20.6834	14.3891	-0.0527713	-20.5946	
0.143431	20.6011	14.3958	-0.0524578	-20.4577	
0.143431	20.5531	14.342	-0.0543388	-20.4096	
0.0751263	20.5737	14.3689	-0.0543388	-20.4985	
0.198075	20.4913	14.315	-0.0559063	-20.2933	
0.0409738	20.4776	14.315	-0.0581008	-20.4366	
0.116109	20.4639	14.2881	-0.0593548	-20.3478	
0.198075	20.4708	14.2881	-0.0615493	-20.2727	
0.0956178	20.4776	14.2746	-0.0618628	-20.382	
-0.0136702	20.5051	14.2679	-0.0621763	-20.5187	
0.0956178	20.4502	14.2881	-0.0618628	-20.3546	
0.163923	20.4776	14.2881	-0.0606088	-20.3137	
0.0136518	20.5462	14.2477	-0.0596683	-20.5326	
0.170753	20.5599	14.2746	-0.0571603	-20.3892	
0.00682132	20.5599	14.2746	-0.0559063	-20.5531	
0.0819568	20.6011	14.2611	-0.0533983	-20.5191	
0.109279	20.6285	14.2409	-0.0512038	-20.5193	
0.0136518	20.6766	14.2544	-0.0483823	-20.6629	
0.0956178	20.6766	14.2207	-0.0465013	-20.5809	
-9.18019E-006	20.7314	14.2207	-0.0443068	-20.7314	
-0.0205007	20.7657	14.2072	-0.0411718	-20.7862	
0.0682958	20.8755	14.1601	-0.0389773	-20.8072	
0.12977	20.8755	14.2072	-0.0367828	-20.7457	
0.0614653	20.9029	14.2005	-0.0339613	-20.8415	
0.0341433	21.0676	14.2072	-0.0308263	-21.0334	
0.12294	21.1156	14.1736	-0.0286318	-20.9927	
0.0409738	21.1568	14.1399	-0.0261238	-21.1158	
-0.109297	21.2185	14.1534	-0.0236158	-21.3278	
0.0478043	21.2871	14.1264	-0.0211078	-21.2393	
-9.18019E-006	21.3969	14.1197	-0.0189133	-21.3969	
-0.00683968	21.4861	14.113	-0.0173458	-21.4929	
0.0136518	21.5752	14.1197	-0.0154648	-21.5616	
-9.18019E-006	21.6576	14.1197	-0.0138973	-21.6576	
-9.18019E-006	21.781	14.0793	-0.0132703	-21.7811	
0.163923	21.8359	14.0927	-0.0126433	-21.672	
0.0478043	21.9388	14.1062	-0.0120163	-21.891	
-0.109297	22.0349	14.0725	-0.0117028	-22.1442	
-0.0341617	22.1515	14.0523	-0.0120163	-22.1857	
0.0136518	22.2475	14.0793	-0.0110758	-22.2339	
0.0341433	22.3024	14.0321	-0.0104488	-22.2683	
0.12294	22.4602	14.0523	-0.0110758	-22.3373	
-0.0136702	22.6386	14.0254	-0.0104488	-22.6522	
0.102448	22.6866	13.9985	-0.00982181	-22.5841	
0.157092	22.8581	14.0321	-0.0107623	-22.701	
0.00682132	22.9679	14.0187	-0.0117028	-22.961	
-0.00683968	23.0982	13.9782	-0.0107623	-23.105	
-0.0205007	23.2491	14.0456	-0.0117028	-23.2696	
0.0409738	23.2766	13.9985	-0.0129568	-23.2356	
0.0751263	23.4275	14.0254	-0.0142108	-23.3524	
0.0614653	23.5235	13.9782	-0.0142108	-23.4621	
-0.0136702	23.647	13.9917	-0.0148378	-23.6607	
-0.0136702	23.6745	13.9985	-0.0145243	-23.6881	
0.0341433	23.7568	13.9782	-0.0151513	-23.7226	
0.00682132	23.7911	13.9985	-0.0145243	-23.7843	
0.0887873	23.7636	13.9311	-0.0132703	-23.6748	
0.0887873	23.8322	14.0052	-0.0123298	-23.7435	
0.0273128	23.8117	13.9917	-0.0120163	-23.7843	
0.0546348	23.7774	13.9917	-0.0113893	-23.7227	
0.0751263	23.7362	13.9513	-0.00950831	-23.6611	
-0.129789	23.6539	13.9648	-0.00888131	-23.7837	
-0.109297	23.5784	13.9446	-0.00888131	-23.6877	
-0.0341617	23.4412	13.9378	-0.00668681	-23.4754	
-0.0683142	23.3246	13.8907	-0.00668681	-23.3929	
-0.0614837	23.2148	13.8907	-0.00637331	-23.2763	
-0.122958	23.0502	13.8637	-0.00449231	-23.1731	
-0.184433	22.9404	13.8705	-0.00292481	-23.1248	
-0.109297	22.7346	13.8705	-0.000730307	-22.8439	
-0.116128	22.5768	13.8435	0.0020912	-22.693	
-0.170772	22.4053	13.8301	0.0058532	-22.5761	
-0.204924	22.3093	13.8166	0.0102422	-22.5142	
-0.129789	22.1652	13.8233	0.0165122	-22.295	
-0.0888057	22.0074	13.7897	0.0230957	-22.0962	
-0.239077	21.8977	13.8368	0.0303062	-22.1367	
-0.170772	21.6781	13.8637	0.0378302	-21.8489	
-0.191263	21.5409	13.8435	0.0456677	-21.7322	
-0.198094	21.3969	13.8099	0.0544457	-21.595	
-0.259568	21.2391	13.8301	0.0632237	-21.4987	
-0.321043	21.1225	13.7627	0.0723152	-21.4435	
-0.368856	20.951	13.7964	0.0814067	-21.3198	
-0.259568	20.7795	13.7897	0.0911253	-21.039	
-0.4235	20.6285	13.7829	0.0995898	-21.052	
-0.252738	20.4502	13.7829	0.109935	-20.7029	
-0.327873	20.313	13.8099	0.119967	-20.6408	
-0.55328	20.1963	13.7829	0.13188	-20.7496	
-0.403009	20.0248	13.756	0.142853	-20.4279	
-0.539619	19.8671	13.7425	0.153512	-20.4067	
-0.403009	19.7299	13.7358	0.162603	-20.1329	
-0.450822	19.6201	13.7829	0.171068	-20.0709	
-0.471314	19.3937	13.7492	0.178905	-19.865	
-0.471314	19.2291	13.7358	0.186116	-19.7004	
-0.457653	19.1056	13.7021	0.194267	-19.5632	
-0.580602	18.9478	13.7358	0.201791	-19.5284	
-0.806008	18.79	13.7021	0.209942	-19.596	
-0.55328	18.7077	13.7492	0.217779	-19.261	
-0.655737	18.5087	13.6617	0.226871	-19.1645	
-0.512297	18.4401	13.6549	0.236276	-18.9524	
-0.532788	18.2824	13.6549	0.246308	-18.8151	
-0.635246	18.1932	13.6011	0.255399	-18.8284	
-0.594263	18.0834	13.6482	0.266058	-18.6777	
-0.519127	17.9668	13.6752	0.27515	-18.4859	
-0.648907	17.8776	13.628	0.282987	-18.5265	
-0.601093	17.7816	13.628	0.289571	-18.3827	
-0.648907	17.7198	13.628	0.296154	-18.3687	
-0.662568	17.6924	13.6078	0.30117	-18.355	
-0.68989	17.6169	13.6482	0.308067	-18.3068	
-0.676229	17.5689	13.6482	0.313397	-18.2451	
-0.765025	17.5826	13.6145	0.318413	-18.3476	
-0.683059	17.5277	13.628	0.321861	-18.2108	
-0.621585	17.5826	13.6752	0.325937	-18.2042	
-0.710381	17.5072	13.6213	0.330953	-18.2175	
-0.765025	17.4866	13.6752	0.336282	-18.2516	
-0.724042	17.4729	13.6415	0.341612	-18.1969	
-0.69672	17.4797	13.6482	0.347255	-18.1764	
-0.819669	17.4729	13.6549	0.351957	-18.2925	
-0.744534	17.3905	13.6482	0.353525	-18.1351	
-0.792347	17.4043	13.6617	0.355092	-18.1966	
-0.792347	17.3151	13.6617	0.356973	-18.1074	
-0.676229	17.3014	13.6213	0.359481	-17.9776	
-0.771856	17.2671	13.6684	0.36387	-18.0389	
-0.744534	17.1985	13.6886	0.366378	-17.943	
-0.771856	17.1093	13.6684	0.368259	-17.8811	
-0.655737	17.0887	13.6819	0.369513	-17.7444	
-0.594263	16.9995	13.7156	0.370767	-17.5938	
-0.710381	16.8966	13.6752	0.370454	-17.607	
-0.771856	16.8417	13.7088	0.367946	-17.6136	
-0.642076	16.78	13.7088	0.365438	-17.4221	
-0.648907	16.6496	13.6819	0.361676	-17.2985	
-0.744534	16.5879	13.7156	0.35666	-17.3324	
-0.676229	16.4644	13.7223	0.353525	-17.1406	
-0.587432	16.3684	13.7223	0.351644	-16.9558	
-0.717212	16.2929	13.7088	0.35039	-17.0101	
-0.703551	16.1694	13.7156	0.348195	-16.873	
-0.669398	16.0528	13.7425	0.347255	-16.7222	
-0.69672	15.9293	13.7021	0.347882	-16.626	
-0.765025	15.7921	13.7425	0.347568	-16.5571	
-0.730873	15.6961	13.7627	0.346941	-16.4269	
-0.648907	15.6138	13.7492	0.348822	-16.2627	
-0.778686	15.5108	13.7762	0.351957	-16.2895	
-0.860652	15.5314	13.756	0.355092	-16.3921	
-0.819669	15.3874	13.8166	0.357914	-16.207	
-0.799178	15.3736	13.7492	0.359795	-16.1728	
-0.860652	15.3736	13.7762	0.363557	-16.2343	
-0.935788	15.3942	13.7694	0.367319	-16.33	
-0.901635	15.3325	13.7964	0.371708	-16.2341	
-0.908466	15.2913	13.8166	0.376724	-16.1998	
-0.812839	15.2021	13.8839	0.382053	-16.015	
-0.840161	15.161	13.8503	0.388323	-16.0011	
-1.07923	15.1404	13.857	0.39522	-16.2196	
-0.922127	15.0306	13.8705	0.402431	-15.9528	
-0.922127	14.9826	13.9244	0.409641	-15.9047	
-1.02458	14.9277	13.8839	0.418733	-15.9523	
-0.935788	14.8591	13.9648	0.428138	-15.7949	
-1.06557	14.866	13.9648	0.437543	-15.9316	
-0.997262	14.7219	13.9513	0.446948	-15.7192	
-1.1407	14.667	13.9446	0.45604	-15.8078	
-1.05191	14.5641	13.9985	0.465445	-15.6161	
-1.1407	14.4407	14.0187	0.474536	-15.5814	
-0.983601	14.324	13.9648	0.483941	-15.3076	
-0.922127	14.2554	13.9782	0.490838	-15.1776	
-1.07923	14.1457	14.0658	0.496481	-15.2249	
-1.05874	14.0428	14.0523	0.500243	-15.1015	
-1.08606	13.9879	14.086	0.502751	-15.0739	
-1.02458	13.8507	14.0523	0.504632	-14.8753	
-0.956279	13.8301	14.0658	0.505886	-14.7864	
-1.03141	13.7752	14.0523	0.504946	-14.8066	
-1.09289	13.6655	14.086	0.504319	-14.7584	
-1.04508	13.638	14.113	0.502124	-14.6831	
-1.05874	13.5694	14.1264	0.499616	-14.6282	
-1.10655	13.542	14.1197	0.497108	-14.6485	
-1.03825	13.4665	14.1264	0.494914	-14.5048	
-1.10655	13.4528	14.1466	0.493973	-14.5593	
-0.983601	13.4254	14.1332	0.492719	-14.409	
-1.19535	13.3911	14.1668	0.4946	-14.5864	
-1.08606	13.4048	14.1736	0.495854	-14.4908	
-1.28414	13.3225	14.2072	0.498989	-14.6066	
-1.18169	13.3362	14.2746	0.501184	-14.5179	
-1.18852	13.3019	14.2409	0.504632	-14.4904	
-1.21584	13.247	14.2207	0.507767	-14.4628	
-1.3866	13.2676	14.187	0.511216	-14.6542	
-1.3183	13.247	14.2544	0.516232	-14.5653	
-1.24999	13.2264	14.2275	0.523756	-14.4764	
-1.43441	13.2196	14.2679	0.53222	-14.654	
-1.40709	13.2264	14.3015	0.541312	-14.6335	
-1.25682	13.2744	14.3083	0.551344	-14.5313	
-1.37977	13.2676	14.2813	0.562003	-14.6473	
-1.33196	13.2676	14.3352	0.573289	-14.5995	
-1.56419	13.3225	14.3218	0.580499	-14.8866	
-1.37977	13.3362	14.3554	0.586142	-14.7159	
-1.45491	13.3842	14.3352	0.591472	-14.8391	
-1.4754	13.3842	14.3824	0.596174	-14.8596	
-1.32513	13.4185	14.4026	0.603385	-14.7436	
-1.37977	13.494	14.416	0.609968	-14.8737	
-1.37977	13.5214	14.4363	0.615611	-14.9012	
-1.59152	13.5694	14.4363	0.620627	-15.1609	
-1.49589	13.638	14.4969	0.623762	-15.1339	
-1.41392	13.7341	14.4901	0.62627	-15.148	
-1.36611	13.7752	14.4767	0.627838	-15.1413	
-1.46857	13.8781	14.5575	0.629719	-15.3467	
-1.57102	13.9742	14.5642	0.630346	-15.5452	
-1.59835	14.0428	14.544	0.629092	-15.6411	
-1.51638	14.1045	14.5642	0.625957	-15.6209	
-1.48223	14.2349	14.6114	0.621881	-15.7171	
-1.65982	14.3172	14.6248	0.618433	-15.977	
-1.65982	14.3721	14.5642	0.616238	-16.0319	
-1.57102	14.4544	14.7057	0.617806	-16.0254	
-1.5437	14.5367	14.6114	0.618746	-16.0804	
-1.55736	14.5916	14.6653	0.621254	-16.1489	
-1.40709	14.6602	14.7259	0.624389	-16.0673	
-1.48906	14.7288	14.7124	0.628465	-16.2178	
-1.6325	14.7905	14.7663	0.634421	-16.423	
-1.68031	14.866	14.7663	0.637556	-16.5463	
-1.57102	14.9072	14.8134	0.641318	-16.4782	
-1.61201	15.0032	14.8202	0.64414	-16.6152	
-1.60518	15.0444	14.8269	0.647275	-16.6495	
-1.6325	15.0375	14.8606	0.649783	-16.67	
-1.5437	15.1541	14.9145	0.652291	-16.6978	
-1.69397	15.1198	14.8808	0.65668	-16.8138	
-1.62567	15.0924	14.9953	0.661696	-16.718	
-1.6325	15.0306	14.9145	0.66922	-16.6631	
-1.59152	14.9826	14.9347	0.675803	-16.5741	
-1.65299	14.8454	14.9886	0.682073	-16.4984	
-1.42758	14.6945	14.9684	0.684895	-16.1221	
-1.56419	14.6053	15.002	0.687089	-16.1695	
-1.57102	14.5093	15.0222	0.686462	-16.0803	
-1.41392	14.4269	15.0155	0.681446	-15.8409	
-1.33196	14.3378	15.0492	0.673922	-15.6697	
-1.5437	14.1663	15.1233	0.664204	-15.71	
-1.52321	14.0428	15.1031	0.652918	-15.566	
-1.44124	13.885	15.1839	0.641005	-15.3262	
-1.4754	13.7821	15.1367	0.629719	-15.2575	
-1.45491	13.6998	15.1772	0.618746	-15.1547	
-1.46174	13.5077	15.231	0.610282	-14.9694	
-1.40026	13.3568	15.258	0.602444	-14.757	
-1.44124	13.2744	15.2782	0.597742	-14.7157	
-1.48906	13.1372	15.3253	0.59398	-14.6263	
-1.57785	13.0755	15.3792	0.590845	-14.6533	
-1.48223	12.9246	15.3927	0.588964	-14.4068	
-1.45491	12.8697	15.4062	0.590845	-14.3246	
-1.2978	12.7668	15.4802	0.595234	-14.0646	
-1.24316	12.6707	15.487	0.60025	-13.9139	
-1.41392	12.5816	15.5476	0.604952	-13.9955	
-1.59152	12.513	15.588	0.608714	-14.1045	
-1.46857	12.4787	15.588	0.611536	-13.9472	
-1.35928	12.362	15.6419	0.613103	-13.7213	
-1.2978	12.3415	15.6756	0.617179	-13.6393	
-1.30463	12.3003	15.7092	0.618746	-13.6049	
-1.35245	12.2591	15.7833	0.618433	-13.6116	
-1.42075	12.2042	15.7564	0.61373	-13.625	
-1.39343	12.1219	15.844	0.607147	-13.5154	
-1.32513	12.0876	15.8372	0.601504	-13.4127	
-1.26365	12.0465	15.8844	0.59492	-13.3101	
-1.28414	12.0053	15.9248	0.589591	-13.2894	
-1.34562	11.9779	15.9517	0.584261	-13.3235	
-1.32513	11.9779	15.9854	0.581753	-13.303	
-1.37294	11.9161	15.9921	0.580499	-13.2891	
-1.14753	11.9024	16.0595	0.579872	-13.0499	
-1.29097	11.8269	16.1066	0.580499	-13.1179	
-1.43441	11.8612	16.1336	0.579245	-13.2957	
-1.40709	11.8338	16.1673	0.577678	-13.2409	
-1.30463	11.8132	16.1807	0.576737	-13.1179	
-1.31147	11.8407	16.2548	0.575483	-13.1521	
-1.3183	11.8544	16.2818	0.572975	-13.1727	
-1.31147	11.8338	16.2952	0.569527	-13.1453	
-1.15436	11.8407	16.3828	0.565451	-12.995	
-1.35245	11.8475	16.3761	0.562003	-13.2	
-1.45491	11.9367	16.3761	0.561062	-13.3916	
-1.2978	11.9847	16.4569	0.560435	-13.2825	
-1.25682	12.1013	16.5512	0.559495	-13.3582	
-1.24316	12.1494	16.504	0.558868	-13.3925	
-1.3183	12.2866	16.6118	0.560122	-13.6049	
-1.01092	12.3483	16.6253	0.562316	-13.3592	
-1.27048	12.4169	16.6791	0.565765	-13.6874	
-1.48906	12.5267	16.7465	0.569527	-14.0157	
-1.24999	12.6707	16.7465	0.571094	-13.9207	
-1.12704	12.7805	16.7802	0.572662	-13.9075	
-1.14753	12.8148	16.8408	0.572348	-13.9623	
-1.10655	12.8903	16.9216	0.572348	-13.9968	
-1.00409	12.9794	16.962	0.571094	-13.9835	
-1.12021	13	17.0159	0.568586	-14.1202	
-1.20218	13.1166	17.0294	0.565138	-14.3188	
-1.1407	13.1029	17.0429	0.560435	-14.2436	
-1.07923	13.1166	17.1506	0.555106	-14.1959	
-1.25682	13.0823	17.1641	0.550717	-14.3392	
-1.12704	13.0892	17.2045	0.545387	-14.2163	
-1.05191	13.0823	17.2517	0.539744	-14.1343	
-1.04508	13.0412	17.3055	0.535042	-14.0863	
-0.976771	13.0343	17.3123	0.529085	-14.0111	
-0.887974	13.0069	17.319	0.523756	-13.8949	
-0.901635	13	17.4268	0.519053	-13.9017	
-0.983601	12.9314	17.4807	0.512783	-13.915	
-0.96311	12.904	17.4537	0.5062	-13.8671	
-0.853822	12.7668	17.4941	0.500243	-13.6206	
-0.908466	12.6707	17.5682	0.491779	-13.5792	
-0.908466	12.657	17.5682	0.482687	-13.5655	
-0.887974	12.5335	17.6086	0.474223	-13.4215	
-0.792347	12.5061	17.6625	0.465445	-13.2984	
-0.976771	12.4649	17.6962	0.458234	-13.4417	
-1.18852	12.2797	17.7299	0.452905	-13.4682	
-0.894805	12.3071	17.7366	0.448829	-13.202	
-0.846991	12.2385	17.7838	0.447575	-13.0855	
-0.915296	12.218	17.8983	0.448202	-13.1333	
-0.949449	12.2385	17.7838	0.448516	-13.188	
-0.922127	12.3003	17.8444	0.449143	-13.2224	
-0.922127	12.3346	17.8713	0.448829	-13.2567	
-0.8265	12.4101	17.9185	0.449143	-13.2366	
-0.737703	12.4787	17.9791	0.449456	-13.2164	
-0.771856	12.5061	17.9993	0.449143	-13.2779	
-0.990432	12.5267	18.0397	0.448829	-13.5171	
-0.819669	12.5473	18.0464	0.448829	-13.3669	
-0.710381	12.5816	18.0734	0.446948	-13.2919	
-0.792347	12.5473	18.1138	0.443499	-13.3396	
-0.778686	12.5335	18.1677	0.43911	-13.3122	
-0.840161	12.5198	18.1811	0.435348	-13.36	
-0.840161	12.4992	18.2216	0.430646	-13.3394	
-0.812839	12.4924	18.235	0.42563	-13.3052	
-0.737703	12.5335	18.2485	0.418733	-13.2712	
-0.771856	12.4581	18.2956	0.411836	-13.2299	
-0.724042	12.4032	18.3091	0.408387	-13.1272	
-0.806008	12.3415	18.3024	0.404939	-13.1475	
-0.778686	12.2797	18.3563	0.404312	-13.0584	
-0.69672	12.1699	18.3563	0.403998	-12.8667	
-0.594263	12.067	18.4371	0.402431	-12.6613	
-0.730873	12.0259	18.4371	0.398982	-12.7568	
-0.765025	11.9298	18.4506	0.393966	-12.6949	
-0.648907	11.8544	18.4371	0.389264	-12.5033	
-0.607924	11.8338	18.4708	0.384875	-12.4417	
-0.655737	11.7652	18.5314	0.378918	-12.4209	
-0.642076	11.6486	18.4775	0.373589	-12.2906	
-0.56011	11.6211	18.5381	0.367632	-12.1812	
-0.566941	11.5594	18.5381	0.361989	-12.1263	
-0.573771	11.5319	18.5583	0.356346	-12.1057	
-0.765025	11.4976	18.5314	0.351644	-12.2627	
-0.566941	11.4839	18.6189	0.344747	-12.0509	
-0.635246	11.4565	18.6122	0.338163	-12.0917	
-0.601093	11.4222	18.6392	0.330012	-12.0233	
-0.642076	11.4222	18.6594	0.323429	-12.0643	
-0.607924	11.4153	18.6796	0.318099	-12.0233	
-0.580602	11.4496	18.693	0.313083	-12.0302	
-0.669398	11.429	18.6998	0.310262	-12.0984	
-0.703551	11.4976	18.6728	0.308694	-12.2012	
-0.614754	11.5045	18.6526	0.309321	-12.1193	
-0.573771	11.5045	18.7739	0.310889	-12.0783	
-0.580602	11.5937	18.7335	0.313083	-12.1743	
-0.450822	11.5114	18.7469	0.314651	-11.9622	
-0.546449	11.6486	18.7671	0.315591	-12.195	
-0.642076	11.6897	18.7537	0.315905	-12.3318	
-0.607924	11.7858	18.7604	0.314964	-12.3937	
-0.648907	11.8475	18.7267	0.313397	-12.4964	
-0.587432	11.9367	18.7537	0.311516	-12.5241	
-0.607924	12.0053	18.7941	0.308381	-12.6132	
-0.355195	12.1425	18.7806	0.303678	-12.4977	
-0.491805	12.2111	18.7537	0.30023	-12.7029	
-0.491805	12.362	18.7873	0.296468	-12.8538	
-0.601093	12.5198	18.7941	0.293646	-13.1209	
-0.621585	12.6296	18.8008	0.291452	-13.2512	
-0.464483	12.7599	18.7671	0.28863	-13.2244	
-0.409839	12.8971	18.8277	0.286749	-13.307	
-0.464483	13.0892	18.7469	0.284868	-13.5537	
-0.4235	13.2401	18.8277	0.281106	-13.6636	
-0.409839	13.3842	18.8277	0.276404	-13.794	
-0.362026	13.59	18.7806	0.271701	-13.952	
-0.341534	13.8027	18.8143	0.266058	-14.1442	
-0.177602	13.9536	18.8143	0.258221	-14.1312	
-0.314212	14.1731	18.8412	0.249443	-14.4873	
-0.300551	14.4132	18.8075	0.239097	-14.7138	
-0.191263	14.6259	18.8547	0.227811	-14.8172	
-0.211755	14.8386	18.8277	0.217152	-15.0503	
-0.211755	15.0581	18.848	0.204299	-15.2698	
-0.116128	15.1953	18.7941	0.192072	-15.3114	
-0.116128	15.4285	18.8008	0.177965	-15.5447	
-0.136619	15.5795	18.821	0.161976	-15.7161	
-0.157111	15.7921	18.8277	0.148182	-15.9492	
-0.0409922	15.9568	18.8277	0.134075	-15.9978	
-0.0956362	16.2037	18.8412	0.11934	-16.2994	
-0.00683968	16.3615	18.8412	0.105546	-16.3684	
0.0409738	16.533	18.821	0.0923793	-16.492	
0.0273128	16.732	18.8143	0.0807797	-16.7046	
0.0341433	16.8006	18.8277	0.0688667	-16.7664	
0.0273128	16.9995	18.8412	0.0572672	-16.9722	
0.116109	17.0544	18.7739	0.0456677	-16.9383	
0.184414	17.1298	18.8008	0.0353222	-16.9454	
0.321024	17.1504	18.7873	0.0234092	-16.8294	
0.321024	17.1504	18.7873	0.0127502	-16.8294	
0.416651	17.1093	18.7537	0.000837194	-16.6926	
0.314194	17.075	18.7469	-0.0101353	-16.7608	
0.321024	17.0132	18.7335	-0.0239293	-16.6922	
0.471295	16.924	18.7402	-0.0377233	-16.4527	
0.437143	16.8897	18.72	-0.0555928	-16.4526	
0.437143	16.8486	18.7335	-0.0753434	-16.4114	
0.560092	16.7457	18.7267	-0.0988559	-16.1856	
0.553261	16.6702	18.6998	-0.122055	-16.117	
0.409821	16.6291	18.693	-0.145881	-16.2192	
0.53277	16.6153	18.6459	-0.171901	-16.0826	
0.601075	16.4987	18.6392	-0.196354	-15.8976	
0.525939	16.5262	18.6055	-0.219867	-16.0002	
0.689871	16.4576	18.6122	-0.241498	-15.7677	
0.66938	16.4027	18.6055	-0.259995	-15.7333	
0.648888	16.4027	18.6122	-0.27567	-15.7538	
0.683041	16.3341	18.5651	-0.28727	-15.651	
0.67621	16.3547	18.5314	-0.296988	-15.6784	
0.771837	16.3135	18.491	-0.304199	-15.5417	
0.758176	16.3478	18.5247	-0.310469	-15.5896	
0.785498	16.3478	18.4977	-0.316112	-15.5623	
0.751346	16.3066	18.4842	-0.321755	-15.5553	
0.717193	16.3203	18.4438	-0.328965	-15.6032	
0.819651	16.3272	18.4304	-0.337116	-15.5076	
0.956261	16.3135	18.3697	-0.347462	-15.3572	
1.0314	16.3478	18.4169	-0.360315	-15.3164	
0.894786	16.3409	18.3563	-0.374423	-15.4461	
1.07921	16.3958	18.2889	-0.389471	-15.3166	
1.04506	16.4644	18.2956	-0.404519	-15.4194	
0.997244	16.4781	18.262	-0.419253	-15.4809	
0.935769	16.4713	18.2485	-0.433988	-15.5355	
1.0314	16.5193	18.2283	-0.45123	-15.4879	
1.02457	16.5605	18.1609	-0.468473	-15.5359	
1.01774	16.581	18.1205	-0.484461	-15.5633	
1.09287	16.6359	18.0801	-0.50045	-15.543	
1.19533	16.6634	18.0532	-0.513617	-15.468	
1.01774	16.6977	18.0128	-0.523335	-15.6799	
1.20899	16.732	17.9656	-0.529919	-15.523	
1.22948	16.7731	17.9656	-0.534621	-15.5436	
0.956261	16.8006	17.9521	-0.538697	-15.8443	
1.04506	16.8623	17.8781	-0.544653	-15.8172	
1.35243	16.9309	17.8107	-0.55155	-15.5785	
1.3456	16.9858	17.8242	-0.556566	-15.6402	
1.15435	17.0681	17.7568	-0.558761	-15.9138	
1.21582	17.0818	17.7366	-0.559388	-15.866	
1.21582	17.2122	17.7501	-0.559701	-15.9964	
1.21582	17.3562	17.6356	-0.561269	-16.1404	
1.2568	17.4386	17.6154	-0.565971	-16.1818	
1.21582	17.5415	17.5884	-0.57036	-16.3256	
1.19533	17.713	17.5413	-0.575063	-16.5176	
1.24997	17.8364	17.4672	-0.579452	-16.5865	
1.26363	18.0011	17.4807	-0.584468	-16.7375	
1.09287	18.0834	17.4605	-0.58917	-16.9905	
1.33877	18.2686	17.3729	-0.5945	-16.9299	
1.51636	18.447	17.346	-0.600143	-16.9306	
1.27729	18.5636	17.2584	-0.605159	-17.2863	
1.27046	18.6871	17.2719	-0.610175	-17.4166	
1.30462	18.8312	17.2315	-0.616445	-17.5266	
1.11336	18.9204	17.1574	-0.622715	-17.807	
1.31828	19.0507	17.1035	-0.629612	-17.7324	
1.45489	19.1948	17.0631	-0.634941	-17.7399	
1.31145	19.2634	17.0563	-0.640898	-17.9519	
1.23631	19.3251	17.0227	-0.64466	-18.0888	
1.31145	19.3663	16.9553	-0.649049	-18.0548	
1.35926	19.3937	16.9014	-0.65187	-18.0344	
1.44806	19.428	16.8543	-0.654692	-17.98	
1.31828	19.4349	16.7937	-0.655946	-18.1166	
1.39341	19.4349	16.8071	-0.656886	-18.0415	
1.40024	19.4486	16.7128	-0.658767	-18.0483	
1.47538	19.476	16.6657	-0.660962	-18.0006	
1.29096	19.4623	16.6185	-0.665037	-18.1714	
1.28412	19.4623	16.5714	-0.669113	-18.1782	
1.33194	19.4349	16.6051	-0.671307	-18.1029	
1.55734	19.38	16.531	-0.672248	-17.8226	
1.40024	19.38	16.4838	-0.672248	-17.9797	
1.31828	19.3388	16.4232	-0.672561	-18.0205	
1.4139	19.2908	16.3761	-0.674129	-17.8769	
1.29779	19.2428	16.3087	-0.677577	-17.945	
1.50953	19.2702	16.3222	-0.681026	-17.7607	
1.58467	19.1948	16.2548	-0.686042	-17.6101	
1.24997	19.1879	16.1807	-0.691371	-17.9379	
1.44123	19.1742	16.1605	-0.697328	-17.733	
1.63248	19.1399	16.0595	-0.703598	-17.5074	
1.33194	19.1605	16.0123	-0.708614	-17.8285	
1.24314	19.1948	15.9787	-0.712062	-17.9516	
1.55734	19.2908	15.9585	-0.71363	-17.7335	
1.46855	19.2908	15.9248	-0.713943	-17.8223	
1.21582	19.3251	15.8642	-0.712062	-18.1093	
1.35926	19.3525	15.7968	-0.709241	-17.9933	
1.32511	19.38	15.7564	-0.705165	-18.0549	
1.31145	19.4349	15.716	-0.698582	-18.1234	
1.61199	19.4486	15.6688	-0.691371	-17.8366	
1.46172	19.4554	15.6419	-0.683847	-17.9937	
1.16801	19.5652	15.5274	-0.677577	-18.3972	
1.35243	19.5858	15.4937	-0.674756	-18.2334	
1.53002	19.4897	15.46	-0.675383	-17.9597	
1.47538	19.6201	15.4196	-0.677577	-18.1447	
1.31145	19.5652	15.3859	-0.677891	-18.2538	
1.22265	19.5309	15.3523	-0.677577	-18.3083	
1.14068	19.4966	15.2917	-0.676637	-18.3559	
1.31828	19.4623	15.2378	-0.675069	-18.144	
1.27729	19.4211	15.2176	-0.673502	-18.1439	
1.29096	19.2977	15.1704	-0.67068	-18.0067	
1.37975	19.3182	15.1098	-0.669113	-17.9385	
1.29096	19.2496	15.1233	-0.666605	-17.9587	
1.21582	19.181	15.0424	-0.665037	-17.9652	
1.1885	19.1605	14.9886	-0.662529	-17.972	
1.33194	19.133	14.9616	-0.660335	-17.8011	
1.22265	19.133	14.8875	-0.656259	-17.9104	
1.30462	19.1467	14.7932	-0.652811	-17.8421	
1.38658	19.1193	14.7932	-0.648108	-17.7327	
1.11336	19.0919	14.7259	-0.643719	-17.9785	
1.0997	19.085	14.6989	-0.638703	-17.9853	
1.24997	19.085	14.6046	-0.635568	-17.835	
1.11336	19.1399	14.6114	-0.631806	-18.0265	
1.33877	19.1742	14.544	-0.62679	-17.8354	
1.16118	19.2085	14.5238	-0.623342	-18.0473	
1.01774	19.2428	14.4565	-0.618953	-18.225	
1.07921	19.2908	14.416	-0.617385	-18.2116	
1.31145	19.3663	14.3756	-0.617699	-18.0548	
1.12702	19.4143	14.3554	-0.616131	-18.2873	
1.20899	19.4897	14.3487	-0.613937	-18.2808	
1.32511	19.5652	14.2611	-0.608294	-18.2401	
0.983583	19.6064	14.2342	-0.60077	-18.6228	
1.07921	19.6956	14.1668	-0.592932	-18.6163	
1.0109	19.7847	14.1399	-0.586662	-18.7738	
1.14751	19.8945	14.113	-0.583214	-18.747	
1.12019	19.97	14.0658	-0.581333	-18.8498	
1.12019	20.1072	14.0254	-0.577884	-18.987	
1.27729	20.2375	14.0321	-0.573182	-18.9602	
1.0109	20.2787	14.0119	-0.56942	-19.2678	
1.06555	20.4433	13.9311	-0.56409	-19.3778	
1.15435	20.5188	13.8839	-0.560955	-19.3644	
1.01774	20.7246	13.8637	-0.558761	-19.7068	
0.9426	20.7863	13.8435	-0.556566	-19.8437	
1.04506	20.9098	13.8031	-0.553118	-19.8647	
0.928939	21.1087	13.8031	-0.548729	-20.1798	
0.976752	21.2528	13.7425	-0.54434	-20.2761	
0.887956	21.4037	13.7627	-0.539324	-20.5158	
1.06555	21.5409	13.7223	-0.533367	-20.4754	
0.969922	21.7056	13.6482	-0.527411	-20.7357	
0.840142	21.8908	13.6145	-0.521141	-21.0507	
1.07921	22.0623	13.6011	-0.51393	-20.9831	
0.963091	22.2407	13.5606	-0.505466	-21.2776	
0.80599	22.4465	13.5404	-0.497942	-21.6405	
0.860634	22.6317	13.5202	-0.490104	-21.7711	
0.874295	22.8101	13.4664	-0.484148	-21.9358	
0.94943	23.009	13.4596	-0.478505	-22.0596	
0.915278	23.2697	13.4327	-0.473489	-22.3544	
0.922108	23.4824	13.4125	-0.468786	-22.5603	
0.969922	23.6676	13.3855	-0.463457	-22.6977	
0.758176	23.8803	13.3855	-0.458754	-23.1221	
0.614736	24.0723	13.3586	-0.453738	-23.4576	
0.744515	24.2781	13.3519	-0.449976	-23.5336	
0.935769	24.4291	13.3653	-0.446841	-23.4933	
0.928939	24.6006	13.3249	-0.442766	-23.6716	
0.833312	24.7378	13.271	-0.439004	-23.9045	
0.710363	24.8887	13.2845	-0.436809	-24.1783	
0.846973	25.0739	13.2576	-0.435242	-24.227	
0.867464	25.1906	13.2845	-0.433988	-24.3231	
0.792329	25.2866	13.2845	-0.43148	-24.4943	
0.778668	25.3826	13.2508	-0.429285	-24.604	
0.730854	25.3621	13.271	-0.426777	-24.6312	
0.724024	25.3552	13.2576	-0.424583	-24.6312	
0.771837	25.3552	13.2171	-0.422702	-24.5834	
0.758176	25.2866	13.1767	-0.420821	-24.5284	
0.703532	25.1768	13.2239	-0.417686	-24.4733	
0.758176	25.1563	13.1767	-0.413924	-24.3981	
0.601075	25.0465	13.1902	-0.408594	-24.4454	
0.648888	24.9161	13.1565	-0.401697	-24.2673	
0.642058	24.8407	13.1902	-0.3948	-24.1986	
0.648888	24.7103	13.1228	-0.389471	-24.0615	
0.799159	24.58	13.1161	-0.384141	-23.7808	
0.683041	24.484	13.1565	-0.378812	-23.8009	
0.696702	24.3536	13.1363	-0.373796	-23.6569	
0.778668	24.2576	13.1161	-0.369407	-23.4789	
0.580583	24.1547	13.1161	-0.366899	-23.5741	
0.751346	24.0861	13.1296	-0.365331	-23.3347	
0.689871	23.9626	13.069	-0.363137	-23.2727	
0.53277	23.9146	13.1094	-0.360315	-23.3818	
0.505448	23.7911	13.069	-0.35624	-23.2856	
0.648888	23.6745	13.0353	-0.35091	-23.0256	
0.498617	23.6196	13.0824	-0.344954	-23.121	
0.655719	23.4755	13.0286	-0.339938	-22.8198	
0.710363	23.4275	13.0286	-0.334608	-22.7171	
0.519109	23.3109	13.0555	-0.328652	-22.7918	
0.53277	23.1942	13.0555	-0.323636	-22.6615	
0.450804	23.1942	13.0488	-0.319874	-22.7434	
0.696702	23.1394	13.0016	-0.317993	-22.4427	
0.614736	23.0227	13.0016	-0.315171	-22.408	
0.423482	22.9061	13.0286	-0.312977	-22.4826	
0.587414	22.8718	13.0083	-0.308274	-22.2844	
0.587414	22.8101	13.0353	-0.302004	-22.2227	
0.382499	22.714	13.0083	-0.295734	-22.3315	
0.430312	22.6454	12.9612	-0.289778	-22.2151	
0.648888	22.5494	13.0151	-0.282567	-21.9005	
0.53277	22.5014	13.0218	-0.27567	-21.9686	
0.464465	22.4259	13.0151	-0.270027	-21.9614	
0.355177	22.2956	12.9747	-0.265011	-21.9404	
0.484956	22.2956	12.9612	-0.260935	-21.8106	
0.471295	22.227	12.9949	-0.258741	-21.7557	
0.464465	22.2338	12.9949	-0.258427	-21.7694	
0.437143	22.1103	13.0286	-0.2578	-21.6732	
0.348346	22.0898	12.9679	-0.256546	-21.7414	
0.437143	22.0555	12.9477	-0.253411	-21.6183	
0.437143	22.1172	12.9747	-0.249649	-21.6801	
0.430312	22.0212	12.9747	-0.245574	-21.5908	
0.362007	22.028	13.0151	-0.243066	-21.666	
0.355177	22.1241	13.0555	-0.240871	-21.7689	
0.39616	22.1103	12.9949	-0.239617	-21.7142	
0.409821	22.1652	12.9747	-0.23805	-21.7554	
0.443973	22.1995	12.9343	-0.234915	-21.7555	
0.423482	22.2613	13.0083	-0.230839	-21.8378	
0.341516	22.2887	12.9949	-0.22645	-21.9472	
0.25955	22.3367	13.0959	-0.220807	-22.0772	
0.437143	22.3367	13.0353	-0.217359	-21.8996	
0.450804	22.419	13.042	-0.214224	-21.9682	
0.40299	22.3779	12.9949	-0.212029	-21.9749	
0.39616	22.3985	13.0218	-0.210462	-22.0023	
0.416651	22.4465	13.0151	-0.210148	-22.0298	
0.416651	22.4602	13.0151	-0.210462	-22.0436	
0.39616	22.4328	13.0353	-0.211716	-22.0366	
0.368838	22.4533	13.0151	-0.21297	-22.0845	
0.26638	22.3985	13.0016	-0.213283	-22.1321	
0.430312	22.4465	13.0757	-0.213283	-22.0162	
0.525939	22.3642	13.0353	-0.213283	-21.8382	
0.307363	22.3367	12.9949	-0.212656	-22.0294	
0.368838	22.2956	13.0218	-0.210775	-21.9267	
0.314194	22.2681	13.0757	-0.208581	-21.9539	
0.389329	22.1858	13.0353	-0.205759	-21.7965	
0.484956	22.1995	13.0622	-0.201684	-21.7146	
0.348346	22.1035	13.0622	-0.198862	-21.7551	
0.273211	22.0623	13.042	-0.196354	-21.7891	
0.355177	21.9731	13.0555	-0.193533	-21.618	
0.389329	21.9594	13.0353	-0.190084	-21.5701	
0.273211	21.8291	13.0555	-0.186009	-21.5559	
0.40299	21.781	13.0353	-0.183187	-21.3781	
0.40299	21.685	13.0892	-0.181933	-21.282	
0.409821	21.6301	13.0286	-0.18162	-21.2203	
0.40299	21.589	13.042	-0.182874	-21.186	
0.512278	21.5204	13.0488	-0.183501	-21.0081	
0.348346	21.5409	13.069	-0.183187	-21.1926	
0.362007	21.5547	13.0757	-0.180993	-21.1927	
0.314194	21.5409	13.0218	-0.178485	-21.2267	
0.307363	21.5204	13.069	-0.177231	-21.213	
0.389329	21.5547	13.0622	-0.174723	-21.1653	
0.416651	21.5272	13.042	-0.171901	-21.1106	
0.280041	21.5409	13.069	-0.169393	-21.2609	
0.232228	21.4792	13.0218	-0.165318	-21.247	
0.355177	21.5272	13.1094	-0.161869	-21.172	
0.307363	21.4861	13.0286	-0.158421	-21.1787	
0.198075	21.4655	13.0488	-0.155913	-21.2674	
0.218567	21.438	13.0892	-0.154659	-21.2195	
0.321024	21.4586	13.0218	-0.153718	-21.1376	
0.157092	21.3832	13.0555	-0.154032	-21.2261	
0.232228	21.39	13.1161	-0.153091	-21.1578	
0.184414	21.3351	13.0757	-0.15121	-21.1507	
0.252719	21.2871	13.1161	-0.149643	-21.0344	
0.143431	21.1842	13.042	-0.147448	-21.0408	
0.362007	21.0813	13.069	-0.144	-20.7193	
0.348346	21.0058	13.0218	-0.139297	-20.6575	
0.177584	20.8961	13.0286	-0.133341	-20.7185	
0.225397	20.7795	13.0757	-0.128011	-20.5541	
0.293702	20.7314	13.0083	-0.122995	-20.4377	
0.293702	20.656	13.0151	-0.120174	-20.3623	
0.355177	20.5599	13.042	-0.120174	-20.2048	
0.184414	20.5051	12.9814	-0.122368	-20.3206	
0.25955	20.4433	12.9545	-0.124876	-20.1838	
0.239058	20.3747	12.941	-0.128325	-20.1357	
0.293702	20.3267	12.941	-0.1324	-20.033	
0.252719	20.2924	12.9073	-0.134908	-20.0397	
0.218567	20.2924	12.8871	-0.13867	-20.0738	
0.252719	20.2581	12.8332	-0.140238	-20.0054	
0.204906	20.2855	12.8534	-0.141805	-20.0806	
0.232228	20.3198	12.8736	-0.141492	-20.0876	
0.26638	20.3336	12.8063	-0.140865	-20.0672	
0.245889	20.3884	12.8332	-0.140238	-20.1425	
0.218567	20.4022	12.7928	-0.140865	-20.1836	
0.273211	20.4296	12.813	-0.141492	-20.1564	
0.300533	20.4845	12.813	-0.140865	-20.1839	
0.416651	20.5668	12.7591	-0.141805	-20.1501	
0.334685	20.5599	12.7524	-0.142432	-20.2253	
0.389329	20.608	12.7861	-0.142432	-20.2186	
0.25955	20.6423	12.7187	-0.142746	-20.3827	
0.12977	20.704	12.7322	-0.142119	-20.5742	
0.232228	20.7726	12.7322	-0.141805	-20.5404	
0.25955	20.8824	12.7793	-0.140551	-20.6228	
0.177584	20.9098	12.7322	-0.139924	-20.7322	
0.204906	21.0333	12.7255	-0.13773	-20.8284	
0.225397	21.1087	12.6918	-0.137103	-20.8834	
0.12977	21.1842	12.712	-0.133341	-21.0544	
0.334685	21.2322	12.7255	-0.130206	-20.8975	
0.218567	21.3626	12.6581	-0.127071	-21.144	
0.239058	21.4655	12.712	-0.124249	-21.2264	
0.239058	21.589	12.6648	-0.122682	-21.3499	
0.163923	21.6713	12.611	-0.121114	-21.5074	
0.25955	21.733	12.685	-0.11892	-21.4735	
0.163923	21.8496	12.611	-0.118293	-21.6857	
0.109279	21.9594	12.6244	-0.117039	-21.8501	
0.307363	22.0829	12.5705	-0.114531	-21.7755	
0.26638	22.227	12.5773	-0.11265	-21.9606	
0.204906	22.3436	12.611	-0.110142	-22.1387	
0.102448	22.4602	12.5503	-0.109828	-22.3578	
0.245889	22.5768	12.5638	-0.107947	-22.3309	
0.239058	22.7552	12.5705	-0.108888	-22.5161	
0.218567	22.8787	12.5773	-0.110142	-22.6601	
0.252719	23.009	12.584	-0.111709	-22.7563	
0.232228	23.1737	12.5369	-0.113904	-22.9414	
0.252719	23.3795	12.5503	-0.115785	-23.1267	
0.245889	23.5373	12.5436	-0.117039	-23.2914	
0.232228	23.695	12.5436	-0.118293	-23.4628	
0.198075	23.8734	12.584	-0.11986	-23.6753	
0.191245	24.0861	12.6244	-0.120487	-23.8948	
0.0887873	24.1958	12.5571	-0.120174	-24.107	
0.157092	24.2438	12.6042	-0.119233	-24.0868	
0.218567	24.4016	12.6716	-0.11892	-24.1831	
0.273211	24.4908	12.6042	-0.118293	-24.2176	
0.225397	24.5526	12.6446	-0.117666	-24.3272	
0.225397	24.6555	12.6312	-0.115785	-24.4301	
0.218567	24.6555	12.6312	-0.11359	-24.4369	
0.170753	24.7172	12.5975	-0.110142	-24.5464	
0.143431	24.7035	12.5907	-0.108574	-24.56	
0.177584	24.6623	12.6244	-0.106693	-24.4847	
0.280041	24.7241	12.6244	-0.10638	-24.444	
0.150262	24.676	12.6783	-0.105753	-24.5258	
0.198075	24.58	12.5773	-0.106066	-24.3819	
0.245889	24.5114	12.6042	-0.106066	-24.2655	
0.25955	24.4154	12.6244	-0.106693	-24.1558	
0.102448	24.3262	12.6446	-0.108888	-24.2237	
0.293702	24.2576	12.6312	-0.110455	-23.9639	
0.225397	24.1958	12.6244	-0.11265	-23.9704	
0.184414	24.0106	12.6177	-0.114844	-23.8262	
0.191245	23.942	12.5907	-0.117352	-23.7508	
0.184414	23.8391	12.5975	-0.119233	-23.6547	
0.211736	23.7225	12.6177	-0.120174	-23.5107	
0.245889	23.6882	12.6177	-0.121114	-23.4423	
0.26638	23.5921	12.6244	-0.121741	-23.3258	
0.204906	23.5441	12.611	-0.121428	-23.3392	
0.157092	23.4618	12.6312	-0.122055	-23.3047	
0.239058	23.3795	12.6042	-0.121114	-23.1404	
0.102448	23.2491	12.6379	-0.119547	-23.1467	
0.157092	23.1737	12.6783	-0.118293	-23.0166	
0.26638	23.1188	12.6716	-0.116412	-22.8524	
0.232228	23.0159	12.6446	-0.115471	-22.7836	
0.211736	23.009	12.6648	-0.113904	-22.7973	
0.12977	22.8375	12.6581	-0.113277	-22.7077	
0.184414	22.8101	12.6918	-0.112336	-22.6257	
0.239058	22.714	12.6581	-0.110769	-22.475	
0.163923	22.6386	12.6648	-0.108261	-22.4746	
0.184414	22.5974	12.6783	-0.105753	-22.413	
0.170753	22.5357	12.6716	-0.103558	-22.3649	
0.26638	22.419	12.685	-0.101677	-22.1527	
0.0546348	22.3299	12.7187	-0.10011	-22.2752	
0.116109	22.3093	12.6985	-0.0985424	-22.1932	
0.163923	22.227	12.712	-0.0979154	-22.063	
0.211736	22.1446	12.7187	-0.0976019	-21.9329	
0.12294	22.1309	12.685	-0.0947804	-22.008	
0.143431	22.0898	12.7053	-0.0944669	-21.9463	
0.177584	22.0898	12.7053	-0.0941534	-21.9122	
0.252719	22.0555	12.7524	-0.0932129	-21.8027	
0.157092	22.028	12.7187	-0.0935264	-21.8709	
0.0751263	22.0623	12.7524	-0.0919589	-21.9872	
0.184414	22.0692	12.7928	-0.0916454	-21.8848	
0.177584	22.1378	12.7659	-0.0900779	-21.9602	
0.12977	22.1515	12.8063	-0.0881969	-22.0217	
0.0956178	22.1995	12.813	-0.0875699	-22.1039	
0.136601	22.2407	12.7995	-0.0866294	-22.1041	
0.184414	22.1858	12.8198	-0.0847484	-22.0014	
0.0887873	22.2544	12.8332	-0.0831809	-22.1656	
0.0887873	22.3161	12.8332	-0.0819269	-22.2274	
0.12294	22.2613	12.8736	-0.0816134	-22.1383	
0.12294	22.2681	12.8534	-0.0797324	-22.1452	
0.109279	22.2064	12.8938	-0.0794189	-22.0971	
0.102448	22.2544	12.941	-0.0781649	-22.1519	
0.184414	22.2132	12.8804	-0.0781649	-22.0288	
0.198075	22.1584	12.8938	-0.0778514	-21.9603	
0.211736	22.1378	12.9477	-0.0778514	-21.926	
0.177584	22.1241	12.9545	-0.0769109	-21.9465	
0.239058	22.0898	12.9275	-0.0772244	-21.8507	
0.170753	21.9937	12.9477	-0.0769109	-21.823	
0.232228	21.932	12.9545	-0.0765974	-21.6997	
0.150262	21.9114	13.0083	-0.0772244	-21.7611	
0.136601	21.8153	12.9814	-0.0784784	-21.6787	
0.218567	21.7742	12.9545	-0.0797324	-21.5556	
0.232228	21.6713	13.0151	-0.0803594	-21.4391	
0.0751263	21.6576	13.0151	-0.0819269	-21.5824	
0.170753	21.5684	12.9612	-0.0834944	-21.3976	
0.191245	21.5066	13.0286	-0.0850619	-21.3154	
0.170753	21.39	12.9881	-0.0866294	-21.2193	
0.170753	21.342	13.0488	-0.0885104	-21.1712	
0.150262	21.2391	13.0757	-0.0894509	-21.0888	
0.170753	21.1568	13.0555	-0.0919589	-20.986	
0.239058	21.095	13.0555	-0.0928994	-20.856	
0.184414	20.9853	13.0824	-0.0938399	-20.8009	
0.116109	20.9921	13.0488	-0.0950939	-20.876	
0.177584	21.0333	13.0622	-0.0963479	-20.8557	
0.0204823	20.9853	13.0824	-0.0966614	-20.9648	
0.0956178	20.9647	13.0488	-0.0954074	-20.8691	
0.204906	20.9304	13.0488	-0.0944669	-20.7255	
0.218567	20.9784	13.0555	-0.0932129	-20.7598	
0.116109	20.951	13.0757	-0.0913319	-20.8349	
0.204906	20.9029	13.0555	-0.0885104	-20.698	
0.150262	20.9098	13.0488	-0.0863159	-20.7595	
0.0273128	20.8138	13.1296	-0.0834944	-20.7864	
0.116109	20.8069	13.0824	-0.0806729	-20.6908	
0.136601	20.7726	13.1094	-0.0791054	-20.636	
0.136601	20.7109	13.1296	-0.0759704	-20.5743	
0.163923	20.6491	13.1026	-0.0747164	-20.4852	
0.0409738	20.6285	13.1094	-0.0731489	-20.5876	
0.102448	20.5668	13.0824	-0.0715814	-20.4643	
0.102448	20.5188	13.1296	-0.0684464	-20.4163	
0.102448	20.361	13.1161	-0.0646844	-20.2585	
0.12977	20.2787	13.0959	-0.0621763	-20.1489	
0.0887873	20.2512	13.1026	-0.0577873	-20.1624	
0.177584	20.1072	13.1296	-0.0530848	-19.9296	
0.0478043	20.0248	13.0824	-0.0483823	-19.977	
0.0478043	19.9357	13.0757	-0.0439933	-19.8879	
0.0478043	19.8465	13.069	-0.0396043	-19.7987	
0.0409738	19.7847	13.0959	-0.0370963	-19.7438	
0.102448	19.7436	13.042	-0.0342748	-19.6411	
0.0273128	19.675	13.0083	-0.0333343	-19.6477	
0.12294	19.5858	13.0016	-0.0333343	-19.4629	
0.204906	19.6064	13.0016	-0.0345883	-19.4015	
0.12294	19.5584	12.9881	-0.0361558	-19.4354	
0.12294	19.5103	13.0218	-0.0380368	-19.3874	
0.0751263	19.5378	12.941	-0.0402313	-19.4626	
0.0614653	19.5721	12.9477	-0.0424258	-19.5106	
0.0956178	19.5309	12.9275	-0.0439933	-19.4353	
0.102448	19.5721	12.9208	-0.0455608	-19.4696	
-0.0205007	19.5652	12.9073	-0.0461878	-19.5857	
-0.0341617	19.627	12.941	-0.0465013	-19.6611	
0.0614653	19.6407	12.9073	-0.0455608	-19.5792	
-0.0136702	19.6887	12.8669	-0.0439933	-19.7024	
0.0614653	19.7367	12.8669	-0.0430528	-19.6752	
0.0409738	19.7161	12.9006	-0.0402313	-19.6752	
0.0204823	19.7573	12.8669	-0.0389773	-19.7368	
0.136601	19.7847	12.8669	-0.0361558	-19.6481	
0.0478043	19.8259	12.9073	-0.0333343	-19.7781	
0.163923	19.9082	12.84	-0.0323938	-19.7443	
-0.0478227	20.0043	12.8871	-0.0292588	-20.0521	
0.0136518	20.018	12.8198	-0.0276913	-20.0043	
0.0136518	20.0591	12.8938	-0.0248698	-20.0455	
0.0136518	20.1072	12.8871	-0.0229888	-20.0935	
-0.0273312	20.1689	12.9343	-0.0217348	-20.1962	
-0.0136702	20.2032	12.8804	-0.0179728	-20.2169	
-0.122958	20.2512	12.8669	-0.0157783	-20.3742	
-0.102467	20.313	12.84	-0.0135838	-20.4154	
-0.0273312	20.4227	12.8467	-0.0117028	-20.4501	
-0.0205007	20.4502	12.7861	-0.00888131	-20.4707	
-0.0683142	20.6011	12.7995	-0.00762731	-20.6694	
0.0887873	20.6628	12.7793	-0.00574631	-20.5741	
-0.0136702	20.7177	12.813	-0.00449231	-20.7314	
-0.109297	20.7863	12.8198	-0.00198431	-20.8956	
-0.0888057	20.8343	12.813	0.000210194	-20.9231	
-0.0478227	20.9441	12.7861	0.00146419	-20.9919	
-0.0683142	21.047	12.7793	0.0042857	-21.1153	
-0.00683968	21.1087	12.7591	0.0064802	-21.1156	
-0.122958	21.1979	12.7524	0.0099287	-21.3209	
-0.184433	21.294	12.7457	0.0136907	-21.4784	
-0.0819752	21.3557	12.7457	0.0174527	-21.4377	
-0.116128	21.39	12.7793	0.0224687	-21.5061	
-0.129789	21.5135	12.7389	0.0277982	-21.6433	
-0.184433	21.5821	12.7322	0.0334412	-21.7665	
-0.273229	21.6781	12.685	0.0403382	-21.9514	
-0.239077	21.6781	12.7187	0.0469217	-21.9172	
-0.28689	21.7262	12.7726	0.0553862	-22.0131	
-0.321043	21.7948	12.7255	0.0641642	-22.1158	
-0.368856	21.8771	12.7255	0.0741962	-22.2459	
-0.382517	21.8771	12.7591	0.0854823	-22.2596	
-0.450822	21.8702	12.7322	0.0977088	-22.3211	
-0.382517	21.8496	12.7389	0.110249	-22.2322	
-0.382517	21.8085	12.7389	0.122789	-22.191	
-0.498636	21.7605	12.712	0.134702	-22.2591	
-0.382517	21.7605	12.6985	0.148809	-22.143	
-0.464483	21.6233	12.6783	0.160722	-22.0877	
-0.546449	21.4518	12.6783	0.174203	-21.9982	
-0.443992	21.3763	12.6918	0.187056	-21.8203	
-0.443992	21.246	12.6783	0.197088	-21.6899	
-0.403009	21.0882	12.6514	0.203985	-21.4912	
-0.375687	20.9167	12.6042	0.210882	-21.2924	
-0.532788	20.8	12.6177	0.215898	-21.3328	
-0.573771	20.6491	12.6446	0.219033	-21.2229	
-0.519127	20.457	12.5773	0.222795	-20.9762	
-0.573771	20.2306	12.6312	0.225617	-20.8044	
-0.471314	20.0934	12.611	0.229379	-20.5648	
-0.539619	19.9288	12.5975	0.233768	-20.4684	
-0.655737	19.7779	12.5773	0.241292	-20.4336	
-0.655737	19.6064	12.6042	0.249129	-20.2621	
-0.676229	19.4692	12.5975	0.257594	-20.1454	
-0.642076	19.2634	12.584	0.265118	-19.9054	
-0.628415	19.085	12.5773	0.273896	-19.7134	
-0.710381	18.9066	12.5705	0.282047	-19.617	
-0.737703	18.7694	12.5436	0.292079	-19.5071	
-0.765025	18.7008	12.5975	0.300857	-19.4659	
-0.792347	18.4882	12.6177	0.309948	-19.2805	
-0.724042	18.2892	12.6177	0.319667	-19.0133	
-0.737703	18.1795	12.6581	0.328445	-18.9172	
-0.915296	18.0285	12.6244	0.337223	-18.9438	
-0.915296	17.857	12.6716	0.344747	-18.7723	
-0.785517	17.7335	12.5705	0.353838	-18.5191	
-0.874313	17.562	12.6446	0.360422	-18.4364	
-0.867483	17.4386	12.6312	0.367946	-18.306	
-0.908466	17.2671	12.6446	0.374843	-18.1755	
-0.765025	17.0407	12.6648	0.381113	-17.8057	
-0.96994	16.9515	12.6581	0.388637	-17.9214	
-0.942618	16.876	12.6716	0.395847	-17.8186	
-0.956279	16.7388	12.6581	0.403998	-17.6951	
-0.935788	16.6153	12.7187	0.409014	-17.5511	
-0.812839	16.4713	12.712	0.413403	-17.2841	
-0.83333	16.3615	12.6985	0.41936	-17.1948	
-1.00409	16.2792	12.6918	0.423749	-17.2833	
-0.96994	16.1557	12.685	0.428138	-17.1256	
-0.935788	16.0871	12.7255	0.432213	-17.0229	
-0.928957	16.0254	12.6716	0.436289	-16.9543	
-0.997262	15.943	12.7255	0.440991	-16.9403	
-0.96994	15.8607	12.7524	0.445694	-16.8307	
-1.05191	15.8744	12.7322	0.450083	-16.9263	
-1.12704	15.8264	12.7793	0.454472	-16.9535	
-1.18852	15.8607	12.8198	0.460429	-17.0492	
-0.983601	15.8401	12.8063	0.466699	-16.8237	
-1.05191	15.8264	12.7861	0.474223	-16.8783	
-1.23633	15.8127	12.813	0.479552	-17.049	
-1.10655	15.7784	12.813	0.483628	-16.8849	
-1.10655	15.7921	12.8198	0.488017	-16.8987	
-1.11338	15.751	12.8804	0.490525	-16.8643	
-1.19535	15.7441	12.8198	0.4946	-16.9394	
-0.976771	15.7372	12.9073	0.498362	-16.714	
-1.03141	15.6618	12.8938	0.501497	-16.6932	
-1.19535	15.6206	12.9275	0.504632	-16.816	
-1.14753	15.5177	12.9208	0.504946	-16.6652	
-1.09972	15.4765	12.9343	0.506827	-16.5763	
-1.18169	15.4628	12.9208	0.508394	-16.6445	
-1.20901	15.3805	12.9612	0.510589	-16.5895	
-1.05191	15.2982	13.0083	0.516232	-16.3501	
-1.05191	15.209	12.9814	0.520621	-16.2609	
-1.04508	15.113	13.0016	0.527204	-16.158	
-1.08606	15.0512	13.0488	0.529085	-16.1373	
-1.19535	14.8866	13.0622	0.529399	-16.0819	
-1.12704	14.8248	13.0488	0.530026	-15.9519	
-1.2295	14.7425	13.0353	0.527518	-15.972	
-1.13387	14.6465	13.0622	0.528145	-15.7803	
-1.11338	14.5367	13.0892	0.528458	-15.6501	
-1.16119	14.4201	13.1296	0.530026	-15.5813	
-1.13387	14.3172	13.0622	0.53128	-15.4511	
-0.956279	14.1937	13.1094	0.532847	-15.15	
-0.997262	14.0977	13.1094	0.535355	-15.0949	
-1.20218	13.9467	13.1498	0.536923	-15.1489	
-1.12021	13.837	13.1565	0.535982	-14.9572	
-0.997262	13.8301	13.1633	0.533161	-14.8274	
-1.07923	13.7684	13.2037	0.528772	-14.8476	
-0.990432	13.686	13.2171	0.52501	-14.6765	
-1.01775	13.7203	13.2104	0.522188	-14.7381	
-1.16119	13.7341	13.1969	0.520307	-14.8953	
-1.15436	13.7546	13.2373	0.51968	-14.909	
-1.05874	13.7135	13.2912	0.51874	-14.7722	
-1.07923	13.7066	13.2912	0.518113	-14.7859	
-1.12704	13.6586	13.3384	0.516545	-14.7856	
-1.20218	13.5969	13.3653	0.514351	-14.799	
-1.14753	13.5488	13.3586	0.512783	-14.6964	
-1.20218	13.4665	13.3586	0.51247	-14.6687	
-1.19535	13.3979	13.3923	0.513724	-14.5933	
-1.27731	13.3568	13.3721	0.514978	-14.6341	
-1.32513	13.2882	13.399	0.51968	-14.6133	
-1.48223	13.2539	13.3855	0.525323	-14.7361	
-1.34562	13.1372	13.3855	0.532534	-14.4828	
-1.32513	13.1098	13.4529	0.540685	-14.4349	
-1.53004	12.9657	13.4529	0.549149	-14.4958	
-1.23633	12.8354	13.4731	0.559181	-14.0717	
-1.40709	12.7256	13.4394	0.56984	-14.1327	
-1.33196	12.6707	13.5068	0.579245	-14.0027	
-1.37294	12.4649	13.4596	0.58771	-13.8379	
-1.48906	12.4169	13.4933	0.594293	-13.906	
-1.48906	12.2385	13.4866	0.60119	-13.7276	
-1.3866	12.1494	13.5472	0.607774	-13.536	
-1.40026	12.1013	13.5135	0.611536	-13.5016	
-1.52321	11.9984	13.5472	0.61279	-13.5217	
-1.40026	11.9024	13.5	0.611849	-13.3027	
-1.37294	11.7926	13.5337	0.609655	-13.1656	
-1.48906	11.7789	13.5337	0.608087	-13.268	
-1.46174	11.6829	13.5068	0.606206	-13.1446	
-1.55053	11.6486	13.5202	0.604952	-13.1991	
-1.74179	11.5525	13.5068	0.604639	-13.2943	
-1.76911	11.5045	13.5337	0.60652	-13.2736	
-1.61201	11.4633	13.4866	0.612163	-13.0754	
-1.59152	11.3947	13.5	0.618746	-12.9863	
-1.61884	11.3673	13.5741	0.624703	-12.9861	
-1.72813	11.3742	13.5135	0.631286	-13.1023	
-1.5437	11.3399	13.5337	0.63881	-12.8836	
-1.62567	11.3399	13.5876	0.647902	-12.9655	
-1.68714	11.2644	13.5809	0.656053	-12.9515	
-1.7008	11.3124	13.5	0.66389	-13.0132	
-1.70763	11.2507	13.5606	0.671414	-12.9583	
-1.67348	11.2301	13.6011	0.677998	-12.9036	
-1.78277	11.2438	13.5876	0.682073	-13.0266	
-1.80326	11.2232	13.5943	0.683954	-13.0265	
-1.69397	11.3056	13.5539	0.684895	-12.9995	
-1.75545	11.2575	13.6145	0.686149	-13.013	
-1.81009	11.3193	13.6078	0.690851	-13.1294	
-1.74862	11.381	13.6078	0.695554	-13.1296	
-1.87157	11.3742	13.6347	0.701197	-13.2457	
-1.89206	11.4428	13.5943	0.705899	-13.3348	
-1.93987	11.4496	13.6819	0.709661	-13.3895	
-1.81692	11.5319	13.6819	0.711856	-13.3489	
-1.84424	11.6143	13.6819	0.711856	-13.4585	
-1.74862	11.6211	13.6954	0.711542	-13.3697	
-1.87157	11.7309	13.6886	0.712483	-13.6025	
-1.96036	11.7858	13.7223	0.714364	-13.7461	
-1.86474	11.9024	13.7088	0.718439	-13.7671	
-1.89889	12.0053	13.6886	0.72032	-13.9042	
-1.71446	12.0602	13.7627	0.722201	-13.7746	
-1.7896	12.1699	13.7964	0.723769	-13.9595	
-1.87157	12.3277	13.7964	0.722828	-14.1993	
-1.82375	12.3758	13.8099	0.721261	-14.1995	
-1.71446	12.513	13.8368	0.718126	-14.2274	
-1.86474	12.6364	13.8099	0.715618	-14.5012	
-1.7213	12.8285	13.8031	0.713737	-14.5498	
-1.75545	12.8697	13.857	0.711856	-14.6251	
-1.83741	12.904	13.8705	0.709661	-14.7414	
-1.6325	13.0892	13.9378	0.707467	-14.7217	
-1.62567	13.1647	13.9109	0.705272	-14.7903	
-1.89889	13.2607	13.9378	0.703391	-15.1596	
-1.72813	13.3293	13.985	0.699943	-15.0574	
-1.91938	13.4391	13.9782	0.696181	-15.3585	
-1.87157	13.5283	14.0321	0.693046	-15.3998	
-1.56419	13.59	14.0523	0.691478	-15.1542	
-1.49589	13.6998	14.0187	0.692732	-15.1957	
-1.78277	13.7066	14.0725	0.694613	-15.4894	
-1.61201	13.7066	14.0725	0.694613	-15.3186	
-1.53687	13.7341	14.0591	0.693986	-15.2709	
-1.6325	13.6723	14.1601	0.691165	-15.3048	
-1.53004	13.6037	14.1668	0.68897	-15.1338	
-1.20218	13.5077	14.1601	0.686149	-14.7099	
-1.37294	13.4734	14.2679	0.682387	-14.8463	
-1.28414	13.4254	14.2072	0.67549	-14.7095	
-1.33196	13.3636	14.2679	0.667025	-14.6956	
-1.3183	13.2813	14.3015	0.655112	-14.5996	
-1.17486	13.247	14.3015	0.639751	-14.4218	
-0.983601	13.1578	14.3824	0.622822	-14.1414	
-1.03825	13.0961	14.3622	0.604012	-14.1343	
-1.20218	13.0275	14.3891	0.587396	-14.2296	
-0.990432	13	14.416	0.570154	-13.9905	
-1.00409	12.9589	14.4565	0.554165	-13.963	
-0.894805	12.952	14.4767	0.540058	-13.8468	
-0.771856	12.9177	14.5036	0.527518	-13.6896	
-0.819669	12.8971	14.5844	0.514351	-13.7168	
-0.724042	12.904	14.5508	0.502438	-13.628	
-0.737703	12.8834	14.6046	0.488644	-13.6211	
-0.724042	12.8834	14.6585	0.47579	-13.6074	
-0.491805	12.856	14.672	0.460429	-13.3478	
-0.566941	12.8697	14.6922	0.443186	-13.4366	
-0.4235	12.8834	14.7326	0.425316	-13.3069	
-0.266399	12.9177	14.7259	0.406506	-13.1841	
-0.396178	12.9589	14.8	0.385188	-13.355	
-0.341534	12.9589	14.7865	0.36387	-13.3004	
-0.225416	13.0686	14.8	0.340671	-13.294	
-0.136619	13.1647	14.8067	0.317472	-13.3013	
0.00682132	13.1372	14.8404	0.292706	-13.1304	
-0.0956362	13.2264	14.8539	0.267626	-13.322	
-0.0205007	13.2676	14.8741	0.240351	-13.2881	
0.00682132	13.3705	14.8943	0.212136	-13.3637	
0.0204823	13.4254	14.901	0.184862	-13.4049	
0.116109	13.494	14.9751	0.15696	-13.3778	
0.177584	13.5557	14.9684	0.129372	-13.3781	
0.218567	13.5626	14.9616	0.102411	-13.344	
0.341516	13.6449	14.9549	0.0754502	-13.3034	
0.293702	13.7684	15.002	0.0497432	-13.4747	
0.382499	13.8095	15.002	0.0252902	-13.427	
0.437143	13.9399	14.9886	0.0020912	-13.5027	
0.375668	13.9467	15.0492	-0.0204808	-13.5711	
0.457634	14.0359	15.029	-0.0427393	-13.5783	
0.53277	14.1663	15.0492	-0.0653114	-13.6335	
0.457634	14.2623	15.0694	-0.0916454	-13.8047	
0.53277	14.3378	15.002	-0.117666	-13.805	
0.580583	14.4818	15.0761	-0.143373	-13.9012	
0.566922	14.5641	15.0761	-0.170647	-13.9972	
0.519109	14.6876	15.0424	-0.197608	-14.1685	
0.594244	14.7768	15.0626	-0.223002	-14.1826	
0.648888	14.9346	15.0829	-0.243693	-14.2857	
0.553261	15.0992	15.0896	-0.259995	-14.546	
0.560092	15.2776	15.0155	-0.271281	-14.7175	
0.778668	15.4765	15.0896	-0.280059	-14.6979	
0.642058	15.6069	15.0626	-0.286643	-14.9648	
0.737685	15.8333	15.0559	-0.291659	-15.0956	
0.751346	15.9568	15.1233	-0.295421	-15.2054	
0.683041	16.1283	15.0761	-0.297302	-15.4452	
0.724024	16.2723	15.0829	-0.30075	-15.5483	
0.710363	16.4713	15.0694	-0.305766	-15.7609	
0.792329	16.5742	15.1031	-0.312977	-15.7818	
0.846973	16.7182	15.0829	-0.320501	-15.8713	
0.778668	16.8692	15.0492	-0.32583	-16.0905	
0.840142	16.9103	15.0424	-0.332414	-16.0702	
0.969922	16.9995	15.029	-0.339311	-16.0296	
0.717193	17.1436	15.0896	-0.349029	-16.4264	
0.765007	17.1916	15.0424	-0.360002	-16.4266	
0.881125	17.219	15.0222	-0.370974	-16.3379	
0.935769	17.3151	15.0222	-0.382887	-16.3793	
0.894786	17.3768	14.9953	-0.395427	-16.482	
0.922108	17.418	15.0222	-0.406713	-16.4959	
0.901617	17.4729	14.9953	-0.416118	-16.5712	
0.983583	17.3905	14.9616	-0.424583	-16.407	
0.976752	17.4523	14.9751	-0.431166	-16.4755	
1.16118	17.4729	14.9212	-0.438377	-16.3117	
0.990413	17.5003	14.9347	-0.443393	-16.5099	
1.0109	17.4934	14.9077	-0.448095	-16.4825	
0.887956	17.4729	14.9549	-0.452798	-16.5849	
0.983583	17.4866	14.9347	-0.458754	-16.503	
1.14068	17.4111	14.8808	-0.465965	-16.2704	
0.963091	17.4248	14.9212	-0.474116	-16.4617	
0.969922	17.37	14.8808	-0.482894	-16.4	
0.867464	17.4043	14.8673	-0.491672	-16.5368	
1.08604	17.4111	14.8134	-0.499196	-16.3251	
1.20899	17.418	14.8134	-0.505466	-16.209	
1.13385	17.5003	14.7798	-0.508287	-16.3664	
1.03823	17.5346	14.7865	-0.511109	-16.4964	
0.935769	17.5826	14.7798	-0.51299	-16.6469	
1.08604	17.6375	14.7663	-0.516438	-16.5515	
1.06555	17.7404	14.7528	-0.518946	-16.6749	
1.13385	17.8364	14.7326	-0.521768	-16.7026	
1.12019	17.7953	14.672	-0.523335	-16.6751	
1.05189	17.8159	14.6585	-0.52553	-16.764	
1.2568	17.8639	14.6653	-0.529605	-16.6071	
1.11336	17.8982	14.6653	-0.535562	-16.7848	
1.05872	17.8502	14.6383	-0.539324	-16.7914	
1.03823	17.9462	14.6181	-0.541832	-16.908	
1.05872	17.9805	14.6046	-0.544967	-16.9218	
1.17484	17.9737	14.6248	-0.548102	-16.7988	
1.0997	17.9599	14.5305	-0.551237	-16.8602	
1.20899	17.9462	14.5171	-0.552177	-16.7372	
1.01774	17.8845	14.4969	-0.552804	-16.8667	
1.04506	17.8296	14.4632	-0.552491	-16.7845	
1.00407	17.8159	14.4834	-0.551237	-16.8118	
1.05872	17.7473	14.4363	-0.551237	-16.6885	
1.0109	17.6992	14.4295	-0.548415	-16.6883	
1.03823	17.6375	14.3756	-0.544653	-16.5993	
1.12019	17.6101	14.3487	-0.540578	-16.4899	
1.12702	17.5963	14.342	-0.536502	-16.4693	
1.05189	17.6032	14.3218	-0.535875	-16.5513	
0.928939	17.6032	14.2746	-0.535248	-16.6743	
1.0109	17.5895	14.2409	-0.535248	-16.5786	
1.14751	17.5895	14.214	-0.534308	-16.442	
0.969922	17.5895	14.1736	-0.535248	-16.6196	
0.874295	17.6101	14.1332	-0.536502	-16.7358	
1.09287	17.6306	14.0725	-0.538383	-16.5378	
1.10653	17.6855	14.1197	-0.539951	-16.579	
0.963091	17.713	14.0119	-0.540578	-16.7499	
0.94943	17.7541	14.0119	-0.541518	-16.8047	
1.00407	17.7678	13.9648	-0.542772	-16.7638	
1.11336	17.857	13.9378	-0.541832	-16.7437	
0.922108	17.9119	13.8839	-0.53901	-16.9898	
0.990413	17.9531	13.857	-0.535562	-16.9627	
0.9426	18.0011	13.8772	-0.532427	-17.0585	
0.894786	18.0971	13.8031	-0.531486	-17.2023	
0.969922	18.1932	13.7964	-0.529605	-17.2233	
1.00407	18.2686	13.7762	-0.526784	-17.2646	
1.02457	18.3235	13.7088	-0.521768	-17.299	
0.901617	18.4813	13.729	-0.518319	-17.5797	
0.928939	18.5019	13.6684	-0.515498	-17.5729	
1.00407	18.6665	13.6482	-0.513617	-17.6625	
0.956261	18.7351	13.628	-0.512676	-17.7789	
0.894786	18.7832	13.5876	-0.510168	-17.8884	
1.05872	18.9204	13.5809	-0.507974	-17.8616	
0.969922	19.085	13.5606	-0.504525	-18.1151	
1.02457	19.1605	13.5539	-0.50139	-18.1359	
1.02457	19.3457	13.527	-0.497628	-18.3211	
0.860634	19.4143	13.5	-0.491985	-18.5537	
0.771837	19.6064	13.4259	-0.486029	-18.8345	
0.730854	19.7436	13.3788	-0.480699	-19.0127	
0.9426	19.9219	13.4461	-0.47631	-18.9793	
1.14751	20.0866	13.3923	-0.472862	-18.9391	
0.853803	20.2581	13.3384	-0.47004	-19.4043	
0.621566	20.361	13.298	-0.468159	-19.7394	
0.744515	20.6011	13.2912	-0.465965	-19.8566	
0.846973	20.7795	13.2441	-0.463457	-19.9325	
0.80599	20.9647	13.2778	-0.459695	-20.1587	
0.785498	21.1431	13.2171	-0.457187	-20.3576	
0.833312	21.39	13.2104	-0.453111	-20.5567	
0.771837	21.5615	13.1969	-0.450603	-20.7897	
0.785498	21.8016	13.1228	-0.448095	-21.0161	
0.901617	21.9937	13.1026	-0.446214	-21.0921	
0.792329	22.1515	13.1363	-0.443706	-21.3592	
0.696702	22.4396	13.0959	-0.442452	-21.7429	
0.67621	22.5768	13.0824	-0.439317	-21.9006	
0.853803	22.7415	13.0824	-0.435555	-21.8877	
0.683041	22.913	12.9881	-0.429912	-22.2299	
0.778668	23.057	13.0555	-0.425523	-22.2784	
0.819651	23.2834	13.0824	-0.421134	-22.4638	
0.724024	23.3657	13.0083	-0.417686	-22.6417	
0.751346	23.5647	13.0016	-0.413924	-22.8133	
0.901617	23.647	12.9881	-0.411102	-22.7454	
0.607905	23.7156	13.0016	-0.408281	-23.1077	
0.737685	23.8117	12.9679	-0.406713	-23.074	
0.683041	23.8185	12.9073	-0.404519	-23.1355	
0.744515	23.7979	12.8938	-0.400757	-23.0534	
0.635227	23.7842	12.9679	-0.397308	-23.149	
0.689871	23.7156	12.914	-0.39386	-23.0257	
0.840142	23.647	12.9679	-0.389471	-22.8069	
0.724024	23.6059	12.9006	-0.386336	-22.8818	
0.621566	23.4892	12.8534	-0.38226	-22.8677	
0.614736	23.3932	12.8265	-0.381006	-22.7785	
0.724024	23.3246	12.8467	-0.380379	-22.6006	
0.717193	23.2423	12.8265	-0.381633	-22.5251	
0.621566	23.1668	12.7861	-0.38226	-22.5452	
0.580583	23.0982	12.8198	-0.381006	-22.5176	
0.662549	23.0227	12.8198	-0.378498	-22.3602	
0.696702	22.9267	12.7995	-0.376304	-22.23	
0.648888	22.8444	12.7524	-0.373169	-22.1955	
0.587414	22.7826	12.7861	-0.369407	-22.1952	
0.5396	22.7415	12.7524	-0.363137	-22.2019	
0.683041	22.6386	12.7793	-0.354359	-21.9555	
0.628397	22.5837	12.7659	-0.345267	-21.9553	
0.587414	22.5425	12.7793	-0.33743	-21.9551	
0.560092	22.4533	12.7322	-0.332414	-21.8933	
0.614736	22.4122	12.685	-0.327398	-21.7974	
0.560092	22.2956	12.7255	-0.324263	-21.7355	
0.601075	22.2887	12.7524	-0.320814	-21.6876	
0.512278	22.1995	12.7187	-0.316425	-21.6872	
0.66938	22.1241	12.712	-0.310469	-21.4547	
0.525939	22.0692	12.685	-0.304199	-21.5432	
0.484956	21.9937	12.6716	-0.298869	-21.5088	
0.478126	21.98	12.6918	-0.292913	-21.5019	
0.430312	21.9114	12.6783	-0.289151	-21.4811	
0.519109	21.8634	12.6985	-0.283821	-21.3443	
0.560092	21.7948	12.6716	-0.277237	-21.2347	
0.546431	21.7879	12.685	-0.272221	-21.2415	
0.464465	21.7124	12.7187	-0.267519	-21.248	
0.443973	21.6438	12.6244	-0.266578	-21.1999	
0.355177	21.6233	12.6648	-0.265638	-21.2681	
0.484956	21.6164	12.6985	-0.267519	-21.1314	
0.471295	21.5684	12.6581	-0.2694	-21.0971	
0.375668	21.6164	12.712	-0.269086	-21.2407	
0.375668	21.6027	12.685	-0.267519	-21.227	
0.409821	21.5684	12.685	-0.262816	-21.1586	
0.450804	21.5821	12.6985	-0.25686	-21.1313	
0.437143	21.589	12.6783	-0.252784	-21.1518	
0.450804	21.6095	12.7187	-0.247768	-21.1587	
0.286872	21.6644	12.712	-0.243379	-21.3776	
0.368838	21.6713	12.685	-0.237736	-21.3024	
0.368838	21.7605	12.6985	-0.233034	-21.3916	
0.314194	21.781	12.685	-0.229272	-21.4669	
0.40299	21.8359	12.685	-0.22551	-21.4329	
0.450804	21.8496	12.6918	-0.221121	-21.3988	
0.443973	21.8977	12.6918	-0.217045	-21.4537	
0.307363	21.9182	12.7322	-0.212656	-21.6109	
0.430312	21.98	12.6918	-0.209208	-21.5497	
0.375668	21.9526	12.6918	-0.2067	-21.5769	
0.321024	21.9663	12.6985	-0.206386	-21.6452	
0.491787	21.9731	12.7053	-0.207327	-21.4813	
0.437143	21.98	12.7187	-0.2067	-21.5428	
0.362007	21.9937	12.7053	-0.207013	-21.6317	
0.40299	21.9937	12.7187	-0.206073	-21.5907	
0.314194	21.9045	12.7322	-0.205132	-21.5903	
0.40299	21.9526	12.6918	-0.202938	-21.5496	
0.423482	21.9114	12.7322	-0.202624	-21.4879	
0.300533	21.8222	12.7255	-0.202624	-21.5217	
0.375668	21.8085	12.7053	-0.203878	-21.4328	
0.409821	21.7262	12.7389	-0.204192	-21.3163	
0.423482	21.685	12.7524	-0.202624	-21.2615	
0.389329	21.6713	12.7793	-0.20043	-21.282	
0.362007	21.6233	12.7524	-0.198549	-21.2613	
0.307363	21.5615	12.7389	-0.197295	-21.2542	
0.430312	21.4518	12.7389	-0.197295	-21.0214	
0.430312	21.3969	12.7255	-0.196354	-20.9666	
0.457634	21.3146	12.7659	-0.196354	-20.8569	
0.39616	21.2597	12.712	-0.194473	-20.8635	
0.273211	21.2048	12.7861	-0.193533	-20.9316	
0.25955	21.1842	12.7591	-0.191965	-20.9247	
0.389329	21.1568	12.7659	-0.189771	-20.7674	
0.314194	21.0607	12.7187	-0.187576	-20.7465	
0.239058	21.0676	12.7524	-0.184441	-20.8285	
0.307363	21.1293	12.7457	-0.18162	-20.822	
0.25955	21.0744	12.7053	-0.179425	-20.8149	
0.416651	21.1293	12.6985	-0.17629	-20.7127	
0.225397	21.1362	12.6918	-0.173782	-20.9108	
0.184414	21.0744	12.7255	-0.170334	-20.89	
0.273211	21.0676	12.7255	-0.168453	-20.7944	
0.239058	21.0607	12.6918	-0.166572	-20.8217	
0.348346	21.0813	12.7322	-0.163123	-20.733	
0.191245	21.0607	12.685	-0.162183	-20.8695	
0.252719	21.0127	12.6716	-0.159675	-20.76	
0.116109	20.9921	12.685	-0.15748	-20.876	
0.109279	20.9853	12.7389	-0.154659	-20.876	
0.232228	20.9372	12.7053	-0.152464	-20.705	
0.211736	20.8824	12.685	-0.149643	-20.6706	
0.163923	20.8069	12.712	-0.147762	-20.643	
0.204906	20.7246	12.685	-0.144	-20.5197	
0.252719	20.6423	12.6985	-0.139924	-20.3895	
0.239058	20.5188	12.6379	-0.136162	-20.2797	
0.198075	20.4227	12.685	-0.129579	-20.2247	
0.280041	20.4022	12.6581	-0.125817	-20.1221	
0.321024	20.2375	12.6985	-0.122682	-19.9165	
0.25955	20.1552	12.6379	-0.121114	-19.8956	
0.218567	20.1346	12.6379	-0.120174	-19.916	
0.280041	20.0866	12.584	-0.122368	-19.8065	
0.252719	20.0454	12.584	-0.124876	-19.7927	
0.150262	19.9905	12.5975	-0.128325	-19.8403	
0.239058	19.9425	12.5234	-0.131773	-19.7035	
0.239058	19.8808	12.5301	-0.135222	-19.6417	
0.286872	19.8671	12.4965	-0.138043	-19.5802	
0.321024	19.8671	12.483	-0.140238	-19.546	
0.245889	19.8876	12.4695	-0.141805	-19.6418	
0.362007	19.8876	12.4897	-0.143059	-19.5256	
0.218567	19.9425	12.4897	-0.144	-19.724	
0.239058	19.9288	12.4628	-0.146194	-19.6897	
0.300533	20.0043	12.456	-0.146194	-19.7037	
0.245889	20.0386	12.4358	-0.147135	-19.7927	
0.211736	20.0866	12.3954	-0.146194	-19.8748	
0.232228	20.0797	12.4022	-0.14494	-19.8475	
0.232228	20.1415	12.3752	-0.142119	-19.9092	
0.232228	20.2032	12.3887	-0.138984	-19.971	
0.314194	20.2581	12.3752	-0.134908	-19.9439	
0.163923	20.2992	12.3752	-0.13146	-20.1353	
0.280041	20.361	12.355	-0.128638	-20.0809	
0.170753	20.4022	12.355	-0.124876	-20.2314	
0.232228	20.4708	12.3685	-0.122995	-20.2385	
0.25955	20.5668	12.3213	-0.120487	-20.3072	
0.25955	20.6491	12.3617	-0.119233	-20.3896	
0.143431	20.7383	12.3011	-0.118606	-20.5949	
0.25955	20.8138	12.2944	-0.118293	-20.5542	
0.184414	20.8618	12.3415	-0.117039	-20.6774	
0.0956178	20.9647	12.2472	-0.118606	-20.8691	
0.0887873	21.095	12.2742	-0.119547	-21.0062	
0.0478043	21.1636	12.2877	-0.120174	-21.1158	
0.245889	21.2871	12.2068	-0.121114	-21.0412	
0.25955	21.3969	12.2338	-0.121114	-21.1373	
0.252719	21.4723	12.2607	-0.121428	-21.2196	
0.198075	21.6027	12.2203	-0.120487	-21.4046	
0.170753	21.733	12.2068	-0.119547	-21.5623	
0.177584	21.8153	12.1934	-0.120174	-21.6378	
0.177584	21.9594	12.1934	-0.119233	-21.7818	
0.184414	22.0486	12.227	-0.117979	-21.8642	
0.225397	22.2201	12.1732	-0.116098	-21.9947	
0.245889	22.419	12.1934	-0.114844	-22.1732	
0.0751263	22.5288	12.2136	-0.113904	-22.4537	
0.170753	22.7277	12.1732	-0.112963	-22.557	
0.0887873	22.8718	12.1866	-0.11359	-22.783	
0.198075	22.9816	12.1462	-0.114844	-22.7835	
0.163923	23.1599	12.1462	-0.116412	-22.996	
0.136601	23.3246	12.2338	-0.118293	-23.188	
0.191245	23.4	12.227	-0.120174	-23.2088	
0.157092	23.6196	12.1866	-0.120801	-23.4625	
0.198075	23.695	12.2136	-0.121428	-23.497	
0.163923	23.7911	12.227	-0.120801	-23.6272	
0.116109	23.894	12.227	-0.11986	-23.7779	
0.177584	23.942	12.2203	-0.118293	-23.7644	
0.225397	24.0175	12.2136	-0.116725	-23.7921	
0.150262	24.0518	12.2338	-0.113277	-23.9015	
0.204906	24.0518	12.1934	-0.109828	-23.8469	
0.184414	24.0723	12.2472	-0.10732	-23.8879	
0.204906	24.0243	12.2203	-0.107007	-23.8194	
0.191245	24.0449	12.2068	-0.106066	-23.8537	
0.136601	23.9008	12.2472	-0.106693	-23.7642	
0.225397	23.8871	12.2338	-0.107634	-23.6617	
0.218567	23.7911	12.2203	-0.108574	-23.5725	
0.184414	23.7156	12.2203	-0.110455	-23.5312	
0.245889	23.6607	12.2405	-0.112023	-23.4148	
0.225397	23.5441	12.2068	-0.114844	-23.3187	
0.225397	23.4686	12.227	-0.117039	-23.2433	
0.109279	23.3932	12.2203	-0.118293	-23.2839	
0.184414	23.2834	12.1934	-0.119233	-23.099	
0.232228	23.1874	12.1866	-0.119233	-22.9552	
0.0956178	23.1051	12.2607	-0.119547	-23.0094	
0.252719	22.9679	12.2203	-0.119233	-22.7151	
0.225397	22.8855	12.227	-0.118606	-22.6601	
0.204906	22.8375	12.2203	-0.116725	-22.6326	
0.245889	22.8375	12.2001	-0.114531	-22.5916	
0.12977	22.7346	12.1934	-0.112963	-22.6048	
0.239058	22.6523	12.2068	-0.111709	-22.4132	
0.177584	22.6043	12.2472	-0.109515	-22.4267	
0.12294	22.5288	12.2877	-0.109515	-22.4059	
0.218567	22.4945	12.2405	-0.107947	-22.2759	
0.136601	22.4053	12.254	-0.107634	-22.2687	
0.184414	22.3093	12.2607	-0.108574	-22.1249	
0.26638	22.2544	12.2742	-0.107947	-21.988	
0.25955	22.1721	12.3213	-0.108261	-21.9125	
0.286872	22.1858	12.2674	-0.10732	-21.8989	
0.191245	22.0349	12.2877	-0.105439	-21.8436	
0.273211	22.0417	12.3146	-0.104499	-21.7685	
0.143431	21.9388	12.3617	-0.104185	-21.7954	
0.225397	21.8839	12.3415	-0.103558	-21.6586	
0.170753	21.8016	12.4022	-0.102304	-21.6309	
0.198075	21.8291	12.3415	-0.101677	-21.631	
0.198075	21.7879	12.3954	-0.100423	-21.5898	
0.184414	21.781	12.3617	-0.0994829	-21.5966	
0.12977	21.7536	12.3348	-0.0985424	-21.6238	
0.177584	21.7467	12.4089	-0.0972884	-21.5692	
0.0682958	21.7673	12.3752	-0.0963479	-21.699	
0.157092	21.7673	12.4291	-0.0935264	-21.6102	
0.0546348	21.8359	12.4156	-0.0919589	-21.7813	
0.150262	21.8565	12.4426	-0.0903914	-21.7062	
0.12294	21.8977	12.483	-0.0885104	-21.7747	
0.170753	21.8771	12.4695	-0.0869429	-21.7063	
0.102448	21.9731	12.5099	-0.0850619	-21.8707	
0.204906	21.9457	12.5032	-0.0841214	-21.7408	
0.116109	21.9457	12.4897	-0.0825539	-21.8296	
0.150262	21.9937	12.5167	-0.0816134	-21.8434	
0.116109	21.9937	12.5571	-0.0800459	-21.8776	
0.150262	22.028	12.5571	-0.0791054	-21.8778	
0.184414	22.0074	12.5638	-0.0781649	-21.823	
0.184414	21.98	12.5638	-0.0775379	-21.7956	
0.286872	21.9869	12.5705	-0.0772244	-21.7	
0.150262	21.9388	12.6042	-0.0778514	-21.7886	
0.0341433	21.8977	12.6177	-0.0781649	-21.8635	
0.225397	21.7742	12.6648	-0.0787919	-21.5488	
0.25955	21.8291	12.6581	-0.0797324	-21.5695	
0.150262	21.7262	12.6716	-0.0797324	-21.5759	
0.116109	21.7467	12.6716	-0.0803594	-21.6306	
0.136601	21.685	12.6783	-0.0803594	-21.5484	
0.184414	21.5752	12.685	-0.0803594	-21.3908	
0.0204823	21.5684	12.7187	-0.0809864	-21.5479	
0.0682958	21.4175	12.6783	-0.0819269	-21.3492	
0.143431	21.4106	12.7255	-0.0831809	-21.2672	
0.218567	21.3214	12.712	-0.0841214	-21.1028	
0.12977	21.2528	12.7457	-0.0853754	-21.123	
0.102448	21.1842	12.7255	-0.0875699	-21.0818	
0.177584	21.0744	12.7187	-0.0875699	-20.8969	
0.12977	20.951	12.7187	-0.0891374	-20.8212	
0.0614653	20.9235	12.7591	-0.0894509	-20.8621	
0.0409738	20.8824	12.7524	-0.0897644	-20.8414	
0.218567	20.8481	12.7995	-0.0900779	-20.6295	
0.177584	20.8206	12.7928	-0.0897644	-20.643	
0.12294	20.8	12.7861	-0.0897644	-20.6771	
0.170753	20.7932	12.7726	-0.0881969	-20.6224	
0.150262	20.7795	12.7995	-0.0869429	-20.6292	
0.0614653	20.7932	12.7524	-0.0860024	-20.7317	
0.150262	20.8	12.7995	-0.0847484	-20.6498	
0.12294	20.752	12.7793	-0.0831809	-20.6291	
0.0546348	20.7726	12.7861	-0.0819269	-20.718	
0.0887873	20.6834	12.8332	-0.0806729	-20.5946	
0.12977	20.6697	12.7995	-0.0787919	-20.5399	
-0.0341617	20.6423	12.8265	-0.0775379	-20.6764	
0.12977	20.5531	12.8602	-0.0756569	-20.4233	
0.116109	20.5874	12.8332	-0.0737759	-20.4713	
0.0409738	20.5119	12.8467	-0.0718949	-20.4709	
-0.00683968	20.4433	12.7995	-0.0700139	-20.4502	
0.0136518	20.4433	12.8669	-0.0675059	-20.4297	
0.0341433	20.2718	12.8198	-0.0643709	-20.2377	
0.0546348	20.2512	12.8669	-0.0609223	-20.1966	
0.177584	20.114	12.8265	-0.0565333	-19.9364	
0.0341433	20.0386	12.8736	-0.0524578	-20.0044	
0.0614653	19.8876	12.8265	-0.0474418	-19.8262	
0.136601	19.7985	12.8534	-0.0433663	-19.6619	
0.109279	19.7504	12.8871	-0.0399178	-19.6412	
0.0956178	19.675	12.7995	-0.0377233	-19.5794	
0.150262	19.5858	12.84	-0.0364693	-19.4355	
0.136601	19.5446	12.7928	-0.0367828	-19.408	
0.0136518	19.4623	12.8198	-0.0377233	-19.4487	
0.0614653	19.428	12.7793	-0.0402313	-19.3665	
0.136601	19.3868	12.8534	-0.0424258	-19.2502	
0.109279	19.3457	12.7793	-0.0449338	-19.2364	
0.0341433	19.332	12.7726	-0.0474418	-19.2978	
0.109279	19.4074	12.7591	-0.0496363	-19.2981	
0.12977	19.4006	12.7861	-0.0518308	-19.2708	
0.0478043	19.4143	12.7457	-0.0527713	-19.3665	
0.0682958	19.38	12.7861	-0.0533983	-19.3117	
0.0546348	19.4074	12.7591	-0.0530848	-19.3528	
0.00682132	19.4486	12.7591	-0.0521443	-19.4418	
0.0273128	19.476	12.7861	-0.0502633	-19.4487	
0.0751263	19.524	12.712	-0.0490093	-19.4489	
-0.0273312	19.5378	12.7457	-0.0474418	-19.5651	
-0.0819752	19.5652	12.7322	-0.0449338	-19.6472	
-0.00683968	19.5858	12.6783	-0.0421123	-19.5926	
0.184414	19.6613	12.712	-0.0402313	-19.4768	
0.0136518	19.7161	12.7591	-0.0374098	-19.7025	
-0.0409922	19.7642	12.7726	-0.0339613	-19.8051	
0.12294	19.771	12.712	-0.0311398	-19.6481	
-9.18019E-006	19.8739	12.685	-0.0286318	-19.8739	
-0.0136702	19.8533	12.7322	-0.0261238	-19.867	
0.102448	19.9974	12.7053	-0.0236158	-19.895	
-0.0956362	20.0111	12.6446	-0.0220483	-20.1068	
0.0136518	20.1072	12.6985	-0.0189133	-20.0935	
0.0409738	20.1552	12.6783	-0.0173458	-20.1142	
0.0956178	20.2718	12.7053	-0.0148378	-20.1762	
0.0409738	20.313	12.6514	-0.0132703	-20.272	
0.0136518	20.361	12.6379	-0.0107623	-20.3473	
-0.0136702	20.4159	12.6783	-0.00888131	-20.4295	
-0.0409922	20.5599	12.611	-0.00794081	-20.6009	
-0.00683968	20.6285	12.6581	-0.00668681	-20.6354	
0.0136518	20.7109	12.6379	-0.00574631	-20.6972	
0.0136518	20.7863	12.6244	-0.00480581	-20.7727	
-0.0956362	20.8755	12.5975	-0.00323831	-20.9711	
-0.0751447	20.951	12.5571	-0.00198431	-21.0261	
-0.0614837	21.0127	12.584	0.000523694	-21.0742	
-0.0136702	21.1979	12.5503	0.0024047	-21.2116	
-0.122958	21.2117	12.5638	0.0055397	-21.3346	
-9.18019E-006	21.2665	12.5773	0.0086747	-21.2665	
-0.0751447	21.3832	12.5638	0.0121232	-21.4583	
-0.15028	21.5204	12.5571	0.0158852	-21.6706	
-0.15028	21.5615	12.5638	0.0202742	-21.7118	
-0.198094	21.637	12.5234	0.0256037	-21.8351	
-0.191263	21.7056	12.5571	0.0309332	-21.8968	
-0.239077	21.781	12.5503	0.0368897	-22.0201	
-0.327873	21.8085	12.584	0.0450407	-22.1364	
-0.266399	21.8085	12.5436	0.0535052	-22.0749	
-0.239077	21.8085	12.5503	0.0641642	-22.0476	
-0.314212	21.8222	12.5167	0.0751367	-22.1364	
-0.4235	21.8153	12.4628	0.0873633	-22.2388	
-0.4235	21.7262	12.5234	0.0999033	-22.1497	
-0.334704	21.6987	12.4897	0.11307	-22.0334	
-0.403009	21.6713	12.5099	0.126237	-22.0743	
-0.382517	21.5615	12.4965	0.13815	-21.944	
-0.430331	21.4243	12.4628	0.150377	-21.8546	
-0.41667	21.2803	12.4628	0.162603	-21.6969	
-0.321043	21.1362	12.4628	0.174516	-21.4572	
-0.621585	21.0058	12.4089	0.185802	-21.6274	
-0.4235	20.9029	12.4628	0.196148	-21.3264	
-0.341534	20.6971	12.4224	0.204612	-21.0387	
-0.443992	20.5874	12.4156	0.212136	-21.0314	
-0.525958	20.3336	12.355	0.218093	-20.8595	
-0.594263	20.2306	12.3954	0.224363	-20.8249	
-0.519127	20.0317	12.355	0.229379	-20.5508	
-0.56011	19.8671	12.3483	0.234395	-20.4272	
-0.587432	19.7024	12.3415	0.238784	-20.2898	
-0.68989	19.5309	12.3146	0.244427	-20.2208	
-0.669398	19.3594	12.2944	0.250697	-20.0288	
-0.573771	19.133	12.2877	0.257907	-19.7068	
-0.573771	18.9684	12.3079	0.264804	-19.5421	
-0.724042	18.8586	12.2674	0.273896	-19.5827	
-0.812839	18.6802	12.2742	0.281733	-19.4931	
-0.669398	18.5568	12.2674	0.291138	-19.2262	
-0.607924	18.3578	12.2405	0.300543	-18.9657	
-0.751364	18.2206	12.3011	0.309635	-18.972	
-0.758195	18.0697	12.3415	0.319353	-18.8279	
-0.744534	17.8845	12.254	0.329072	-18.629	
-0.765025	17.7404	12.254	0.336909	-18.5054	
-0.785517	17.6101	12.2203	0.34506	-18.3956	
-0.724042	17.4797	12.2068	0.352898	-18.2038	
-0.867483	17.3494	12.254	0.358854	-18.2169	
-0.765025	17.1985	12.2877	0.363557	-17.9635	
-0.683059	17.0887	12.2674	0.367005	-17.7717	
-0.724042	16.9515	12.2607	0.369513	-17.6755	
-0.96311	16.828	12.2607	0.372335	-17.7911	
-0.846991	16.6908	12.2405	0.374529	-17.5378	
-0.867483	16.5742	12.227	0.378918	-17.4417	
-1.03141	16.3958	12.2136	0.38268	-17.4272	
-1.01092	16.3135	12.2136	0.38801	-17.3244	
-0.887974	16.2449	12.2742	0.394593	-17.1329	
-0.96994	16.1283	12.2338	0.402744	-17.0982	
-1.07923	16.0665	12.2472	0.411836	-17.1458	
-1.01775	16.0459	12.2405	0.420927	-17.0637	
-1.03825	15.9773	12.2001	0.432213	-17.0156	
-1.14753	15.9773	12.2405	0.443186	-17.1249	
-1.0724	15.9293	12.2405	0.454786	-17.0017	
-1.04508	15.8676	12.254	0.465445	-16.9127	
-1.16119	15.9019	12.2338	0.475477	-17.0631	
-1.15436	15.8401	12.254	0.486449	-16.9945	
-1.21584	15.8058	12.2742	0.495541	-17.0217	
-1.12021	15.799	12.2607	0.505259	-16.9192	
-1.27731	15.8401	12.254	0.511529	-17.1175	
-1.24999	15.7921	12.2674	0.515918	-17.0421	
-1.03825	15.751	12.2405	0.518426	-16.7892	
-1.09289	15.7167	12.3348	0.520307	-16.8095	
-1.19535	15.6343	12.3079	0.522188	-16.8297	
-1.09972	15.504	12.3079	0.524383	-16.6037	
-1.03141	15.5177	12.3348	0.52595	-16.5491	
-1.11338	15.4354	12.3348	0.527831	-16.5488	
-1.09289	15.3805	12.355	0.529399	-16.4734	
-0.997262	15.2639	12.3213	0.53128	-16.2611	
-1.00409	15.1747	12.355	0.531593	-16.1788	
-1.20901	15.0787	12.355	0.530026	-16.2877	
-1.19535	14.9963	12.3887	0.527518	-16.1917	
-1.19535	14.9277	12.4089	0.523756	-16.1231	
-1.16802	14.7768	12.4156	0.521875	-15.9448	
-1.1407	14.6739	12.382	0.51968	-15.8146	
-1.09972	14.5504	12.456	0.518426	-15.6501	
-1.1407	14.4201	12.4426	0.517799	-15.5608	
-1.16802	14.3515	12.4897	0.517486	-15.5195	
-1.20901	14.1731	12.4965	0.516859	-15.3821	
-1.19535	14.0496	12.4426	0.515605	-15.245	
-1.09972	13.9193	12.4426	0.51341	-15.019	
-1.11338	13.7958	12.5099	0.510902	-14.9092	
-1.13387	13.7135	12.483	0.507767	-14.8474	
-1.05191	13.6037	12.483	0.505573	-14.6556	
-0.976771	13.5283	12.4897	0.504946	-14.505	
-1.16802	13.5283	12.5705	0.504946	-14.6963	
-1.16119	13.494	12.5503	0.503692	-14.6552	
-1.05874	13.59	12.5099	0.504005	-14.6487	
-1.19535	13.5283	12.5167	0.505573	-14.7236	
-1.03141	13.5283	12.5773	0.50714	-14.5597	
-1.05874	13.5351	12.5571	0.509962	-14.5939	
-1.22267	13.4048	12.611	0.510589	-14.6274	
-1.07923	13.3773	12.6177	0.512783	-14.4566	
-1.18852	13.3019	12.6446	0.514351	-14.4904	
-1.14753	13.295	12.6514	0.516545	-14.4425	
-1.03141	13.2333	12.6514	0.519367	-14.2647	
-1.28414	13.1784	12.6312	0.521248	-14.4625	
-1.20218	13.1235	12.685	0.522188	-14.3257	
-1.2295	13.1372	12.6985	0.523442	-14.3667	
-1.33879	13.048	12.7457	0.524696	-14.3868	
-1.28414	12.9314	12.7322	0.526264	-14.2156	
-1.20901	12.8697	12.7524	0.529085	-14.0787	
-1.24999	12.7599	12.7389	0.532534	-14.0099	
-1.24999	12.6707	12.685	0.53755	-13.9207	
-1.2295	12.5678	12.7322	0.541939	-13.7973	
-1.21584	12.4444	12.7187	0.546641	-13.6602	
-1.15436	12.3895	12.7053	0.550717	-13.5438	
-1.18852	12.2317	12.7322	0.553852	-13.4202	
-1.23633	12.1768	12.7255	0.556673	-13.4131	
-1.41392	12.0533	12.7389	0.55636	-13.4672	
-1.22267	12.019	12.6985	0.555419	-13.2417	
-1.22267	11.9161	12.6581	0.555106	-13.1388	
-1.29097	11.8887	12.7187	0.556046	-13.1797	
-1.3183	11.8612	12.6783	0.558868	-13.1795	
-1.43441	11.8064	12.685	0.561689	-13.2408	
-1.37977	11.7515	12.7053	0.56357	-13.1312	
-1.39343	11.7103	12.6918	0.565451	-13.1037	
-1.27048	11.676	12.6985	0.568273	-12.9465	
-1.42075	11.6486	12.6581	0.572348	-13.0693	
-1.37977	11.5731	12.6985	0.577678	-12.9529	
-1.42758	11.5937	12.6783	0.581126	-13.0213	
-1.42758	11.58	12.685	0.585202	-13.0076	
-1.57785	11.5251	12.685	0.591158	-13.1029	
-1.55053	11.5525	12.6783	0.595861	-13.1031	
-1.55736	11.5388	12.6514	0.602444	-13.0962	
-1.44124	11.4839	12.685	0.608087	-12.9252	
-1.60518	11.4359	12.6514	0.614671	-13.0411	
-1.60518	11.4771	12.6918	0.622195	-13.0822	
-1.51638	11.4839	12.7255	0.628151	-13.0003	
-1.59152	11.4839	12.6918	0.634108	-13.0754	
-1.5437	11.5251	12.6985	0.640064	-13.0688	
-1.5437	11.5457	12.7255	0.646021	-13.0894	
-1.76911	11.5319	12.7187	0.650723	-13.3011	
-1.69397	11.6006	12.685	0.655426	-13.2945	
-1.71446	11.6349	12.685	0.660442	-13.3493	
-1.69397	11.6623	12.6985	0.663577	-13.3563	
-1.57785	11.6829	12.712	0.666398	-13.2607	
-1.59152	11.7926	12.6783	0.670787	-13.3842	
-1.70763	11.8132	12.6918	0.674236	-13.5209	
-1.60518	11.8818	12.7187	0.677998	-13.487	
-1.68714	11.9367	12.7659	0.680819	-13.6238	
-1.65299	12.0122	12.7524	0.683327	-13.6652	
-1.59835	12.0533	12.7389	0.684895	-13.6517	
-1.83058	12.1494	12.7591	0.685835	-13.9799	
-1.71446	12.2523	12.7793	0.687716	-13.9667	
-1.52321	12.3415	12.8198	0.689597	-13.8647	
-1.63933	12.4238	12.813	0.692732	-14.0631	
-1.7896	12.513	12.8198	0.696808	-14.3026	
-1.6325	12.6227	12.8736	0.701197	-14.2552	
-1.64616	12.7256	12.9073	0.704645	-14.3718	
-1.83058	12.856	12.9275	0.707153	-14.6865	
-1.60518	12.8834	12.8602	0.70684	-14.4886	
-1.53687	12.9863	12.8938	0.706213	-14.5232	
-1.55053	13.1441	12.9073	0.705586	-14.6946	
-1.73496	13.2264	13.0016	0.704332	-14.9614	
-1.75545	13.2744	12.9814	0.702451	-15.0299	
-1.75545	13.3568	13.0218	0.699629	-15.1122	
-1.73496	13.4459	13.0286	0.69524	-15.1809	
-1.46174	13.5145	13.0555	0.691478	-14.9763	
-1.48906	13.6655	13.1161	0.689284	-15.1545	
-1.58469	13.6586	13.1161	0.68897	-15.2433	
-1.59835	13.7409	13.1633	0.687716	-15.3393	
-1.50955	13.7478	13.1565	0.685835	-15.2573	
-1.48223	13.7066	13.1835	0.683641	-15.1889	
-1.46857	13.6517	13.2037	0.680506	-15.1203	
-1.42758	13.5557	13.2643	0.677057	-14.9833	
-1.44124	13.5077	13.2306	0.670474	-14.9489	
-1.22267	13.4116	13.271	0.663263	-14.6343	
-1.26365	13.343	13.2845	0.655426	-14.6067	
-1.36611	13.2744	13.3249	0.646648	-14.6405	
-1.24316	13.1784	13.3855	0.639124	-14.4216	
-1.12021	13.0892	13.3586	0.630346	-14.2094	
-1.11338	13.048	13.4327	0.621254	-14.1614	
-1.22267	12.9177	13.4596	0.610282	-14.1404	
-1.17486	12.8217	13.4664	0.60025	-13.9965	
-1.17486	12.7599	13.4596	0.590531	-13.9348	
-1.12704	12.7119	13.5606	0.581126	-13.8389	
-1.16119	12.6227	13.5674	0.573602	-13.7839	
-1.09289	12.5747	13.6213	0.567332	-13.6676	
-0.983601	12.5267	13.6482	0.561689	-13.5103	
-1.29097	12.4375	13.7088	0.555106	-13.7285	
-1.06557	12.4169	13.7021	0.547895	-13.4825	
-1.12021	12.3895	13.7627	0.540685	-13.5097	
-0.990432	12.2866	13.7964	0.533161	-13.277	
-0.935788	12.266	13.8301	0.52595	-13.2018	
-0.956279	12.2797	13.8907	0.518113	-13.236	
-1.01775	12.2591	13.9244	0.510589	-13.2769	
-0.949449	12.2042	13.9109	0.503692	-13.1537	
-0.853822	12.2042	13.9782	0.497735	-13.0581	
-0.935788	12.2042	14.0591	0.492719	-13.14	
-0.949449	12.1288	14.0523	0.487703	-13.0782	
-0.887974	12.1837	14.1062	0.48206	-13.0716	
-0.846991	12.0808	14.113	0.477044	-12.9278	
-0.922127	12.0876	14.1197	0.471088	-13.0098	
-0.867483	12.0808	14.1601	0.464504	-12.9482	
-0.846991	12.0259	14.214	0.460429	-12.8729	
-0.874313	11.9847	14.2409	0.455726	-12.859	
-0.887974	12.0327	14.2813	0.44977	-12.9207	
-0.799178	11.9984	14.3285	0.443499	-12.7976	
-0.737703	11.9847	14.342	0.437229	-12.7224	
-0.785517	11.9779	14.3689	0.431586	-12.7634	
-0.806008	11.9779	14.4228	0.425943	-12.7839	
-0.778686	12.0465	14.4093	0.422495	-12.8251	
-0.730873	12.0122	14.4834	0.41936	-12.743	
-0.703551	11.9779	14.5508	0.416225	-12.6814	
-0.737703	12.0122	14.5305	0.411522	-12.7499	
-0.744534	12.0533	14.5373	0.405252	-12.7979	
-0.730873	12.0808	14.5844	0.398982	-12.8116	
-0.655737	12.1494	14.6585	0.391772	-12.8051	
-0.676229	12.1699	14.6922	0.385502	-12.8462	
-0.69672	12.2248	14.6989	0.380172	-12.9215	
-0.751364	12.3483	14.7191	0.374843	-13.0997	
-0.717212	12.4444	14.7596	0.371081	-13.1616	
-0.724042	12.513	14.7865	0.364497	-13.237	
-0.771856	12.6296	14.8067	0.358854	-13.4014	
-0.8265	12.705	14.901	0.355406	-13.5315	
-0.683059	12.8148	14.9077	0.353525	-13.4979	
-0.751364	12.9794	14.8943	0.352584	-13.7308	
-0.799178	13.0755	14.9751	0.35133	-13.8747	
-0.669398	13.1647	15.0155	0.350703	-13.8341	
-0.642076	13.2882	14.9886	0.352271	-13.9302	
-0.785517	13.3911	15.0626	0.353838	-14.1766	
-0.744534	13.4459	15.13	0.356346	-14.1905	
-0.648907	13.5488	15.1165	0.35666	-14.1977	
-0.669398	13.6106	15.2176	0.356346	-14.28	
-0.601093	13.6449	15.2714	0.354465	-14.246	
-0.676229	13.6655	15.2647	0.352584	-14.3417	
-0.69672	13.7409	15.2984	0.351017	-14.4376	
-0.573771	13.7958	15.3186	0.348509	-14.3696	
-0.512297	13.7821	15.3051	0.344747	-14.2944	
-0.662568	13.7409	15.3725	0.33879	-14.4035	
-0.532788	13.6792	15.4196	0.332207	-14.212	
-0.642076	13.7135	15.4802	0.32625	-14.3556	
-0.546449	13.6449	15.5072	0.319353	-14.1913	
-0.512297	13.638	15.5543	0.31277	-14.1503	
-0.389348	13.5557	15.5745	0.305246	-13.945	
-0.4235	13.5145	15.615	0.298035	-13.938	
-0.375687	13.5488	15.615	0.289571	-13.9245	
-0.457653	13.3842	15.6284	0.280166	-13.8418	
-0.443992	13.3773	15.6823	0.271388	-13.8213	
-0.41667	13.3087	15.6958	0.26261	-13.7254	
-0.396178	13.1784	15.7092	0.252578	-13.5746	
-0.368856	13.1166	15.7497	0.243173	-13.4855	
-0.314212	13.0618	15.7766	0.231887	-13.376	
-0.362026	13.0686	15.817	0.221541	-13.4307	
-0.348365	13.0343	15.8507	0.212136	-13.3827	
-0.341534	13.0892	15.8709	0.203045	-13.4307	
-0.396178	13.1098	15.8844	0.195207	-13.506	
-0.334704	13.199	15.8844	0.188624	-13.5337	
-0.232246	13.247	15.9383	0.184235	-13.4792	
-0.170772	13.3636	15.9652	0.179846	-13.5344	
-0.218585	13.3979	15.9652	0.176711	-13.6165	
-0.177602	13.4254	15.9854	0.172008	-13.603	
-0.198094	13.4802	16.0123	0.165738	-13.6783	
-0.204924	13.4802	16.0932	0.158214	-13.6852	
-0.0683142	13.5351	16.0932	0.14975	-13.6034	
-0.0136702	13.5557	16.1268	0.140345	-13.5694	
-0.14345	13.5488	16.1268	0.129999	-13.6923	
0.0136518	13.6037	16.1268	0.118713	-13.5901	
-0.0546532	13.5694	16.1605	0.107427	-13.6241	
-0.0136702	13.5969	16.1605	0.0952008	-13.6105	
0.157092	13.5969	16.1673	0.0826608	-13.4398	
0.163923	13.59	16.174	0.0694937	-13.4261	
0.150262	13.5763	16.1807	0.0556997	-13.426	
0.177584	13.6037	16.174	0.0415922	-13.4261	
0.218567	13.5077	16.1605	0.0274847	-13.2891	
0.25955	13.5077	16.1538	0.0133772	-13.2481	
0.368838	13.4734	16.1403	-0.000730307	-13.1045	
0.334685	13.4871	16.1201	-0.0145243	-13.1524	
0.471295	13.4665	16.1336	-0.0305128	-12.9952	
0.491787	13.5283	16.1066	-0.0490093	-13.0365	
0.519109	13.4734	16.1066	-0.0706409	-12.9543	
0.546431	13.5077	16.0797	-0.0950939	-12.9612	
0.587414	13.5145	16.0325	-0.123622	-12.9271	
0.66938	13.5351	16.0393	-0.149956	-12.8657	
0.635227	13.6312	16.0123	-0.178798	-12.9959	
0.758176	13.6655	15.918	-0.205759	-12.9073	
0.642058	13.7066	15.918	-0.232093	-13.0646	
0.840142	13.8232	15.9315	-0.257173	-12.9831	
0.662549	13.837	15.8238	-0.279745	-13.1744	
0.758176	13.9879	15.7968	-0.298869	-13.2297	
0.908447	14.1045	15.8103	-0.315171	-13.1961	
0.887956	14.1731	15.7631	-0.330219	-13.2852	
0.935769	14.276	15.615	-0.34464	-13.3402	
0.956261	14.4544	15.6554	-0.358434	-13.4981	
1.04506	14.5093	15.5947	-0.373796	-13.4642	
0.94943	14.5779	15.5543	-0.389157	-13.6284	
0.935769	14.7494	15.5005	-0.402951	-13.8136	
0.867464	14.8454	15.4937	-0.414237	-13.9779	
0.94943	14.9346	15.4196	-0.424896	-13.9852	
0.785498	15.0924	15.4062	-0.434301	-14.3069	
0.846973	15.1747	15.3657	-0.44402	-14.3277	
0.778668	15.3393	15.3051	-0.452171	-14.5607	
0.887956	15.4079	15.2647	-0.461889	-14.52	
0.976752	15.5452	15.1974	-0.469727	-14.5684	
0.922108	15.6892	15.1637	-0.474743	-14.7671	
1.06555	15.8882	15.13	-0.477251	-14.8226	
0.833312	16.0391	15.1637	-0.479132	-15.2058	
0.901617	16.19	15.0626	-0.478818	-15.2884	
0.963091	16.3066	15.0626	-0.478191	-15.3435	
0.990413	16.5056	15.0088	-0.475997	-15.5152	
0.81282	16.6359	14.9549	-0.471921	-15.8231	
0.983583	16.8554	14.9481	-0.466592	-15.8719	
1.0314	17.0201	14.8875	-0.460949	-15.9887	
0.983583	17.1779	14.8875	-0.457814	-16.1943	
1.05189	17.418	14.8269	-0.455306	-16.3661	
0.997244	17.6169	14.7663	-0.457187	-16.6197	
1.04506	17.7884	14.7798	-0.461262	-16.7434	
1.02457	18.0285	14.7057	-0.467532	-17.004	
0.915278	18.2206	14.672	-0.47537	-17.3053	
1.06555	18.495	14.672	-0.484148	-17.4295	
1.22948	18.7008	14.6383	-0.491985	-17.4713	
1.20216	18.8792	14.6114	-0.498882	-17.677	
0.976752	19.1056	14.571	-0.505466	-18.1288	
0.997244	19.3868	14.4767	-0.512363	-18.3896	
1.07921	19.5652	14.5373	-0.517379	-18.486	
1.11336	19.7504	14.416	-0.523022	-18.6371	
0.887956	19.9974	14.3824	-0.527411	-19.1094	
1.14751	20.1483	14.4093	-0.530546	-19.0008	
1.20899	20.3473	14.3487	-0.53274	-19.1383	
1.09287	20.5599	14.3554	-0.53274	-19.4671	
1.12702	20.6971	14.3756	-0.534935	-19.5701	
1.20899	20.8755	14.3352	-0.538383	-19.6665	
1.14751	21.095	14.2477	-0.542772	-19.9475	
1.07238	21.1293	14.214	-0.547788	-20.057	
1.10653	21.2597	14.2275	-0.551237	-20.1531	
1.35243	21.2597	14.1803	-0.555312	-19.9072	
1.29096	21.2871	14.187	-0.55688	-19.9962	
1.24314	21.3283	14.1803	-0.560015	-20.0851	
1.27729	21.2734	14.1062	-0.562836	-19.9961	
1.10653	21.2597	14.1062	-0.570674	-20.1531	
1.10653	21.2048	14.0725	-0.576944	-20.0983	
1.15435	21.1774	14.0254	-0.583841	-20.023	
1.20899	21.1431	13.9985	-0.589484	-19.9341	
1.17484	21.0539	14.0052	-0.594186	-19.879	
1.31828	21.0401	13.9513	-0.597948	-19.7219	
1.21582	20.999	13.9311	-0.601083	-19.7832	
1.05189	20.9647	13.8907	-0.602651	-19.9128	
1.12019	20.8892	13.9244	-0.602024	-19.769	
1.24997	20.8206	13.9042	-0.601397	-19.5707	
1.37292	20.8481	13.857	-0.599829	-19.4751	
1.2568	20.8275	13.8301	-0.597635	-19.5707	
1.13385	20.7863	13.7829	-0.596694	-19.6525	
1.23631	20.7726	13.7694	-0.597635	-19.5363	
1.26363	20.7863	13.756	-0.598889	-19.5227	
1.22265	20.7383	13.7425	-0.60077	-19.5156	
1.21582	20.704	13.729	-0.602964	-19.4882	
1.38658	20.6423	13.7156	-0.605472	-19.2557	
1.21582	20.608	13.6819	-0.605472	-19.3921	
1.08604	20.5805	13.6213	-0.604218	-19.4945	
1.21582	20.5531	13.628	-0.602337	-19.3373	
1.21582	20.4708	13.5674	-0.601397	-19.2549	
1.20216	20.4845	13.5741	-0.60171	-19.2823	
1.05189	20.4708	13.5674	-0.60171	-19.4189	
1.05189	20.4159	13.5539	-0.603278	-19.364	
1.12702	20.457	13.5202	-0.604845	-19.33	
1.07921	20.4296	13.4866	-0.604532	-19.3504	
1.12019	20.3816	13.5135	-0.60704	-19.2614	
1.22265	20.3747	13.4596	-0.608607	-19.1521	
1.11336	20.3198	13.4731	-0.610488	-19.2065	
1.01774	20.2992	13.4529	-0.610488	-19.2815	
1.14751	20.2992	13.4327	-0.608921	-19.1517	
1.27046	20.2649	13.3788	-0.605786	-18.9945	
1.21582	20.2855	13.3519	-0.602024	-19.0697	
1.12702	20.2924	13.3249	-0.598262	-19.1654	
1.26363	20.2375	13.3519	-0.595127	-18.9739	
1.1885	20.2375	13.2778	-0.592932	-19.049	
1.16801	20.2718	13.271	-0.591992	-19.1038	
1.1885	20.2787	13.3384	-0.592305	-19.0902	
1.14751	20.3198	13.2845	-0.591365	-19.1723	
1.02457	20.3953	13.3047	-0.589484	-19.3707	
1.20216	20.3747	13.2643	-0.587603	-19.1726	
0.928939	20.5119	13.2576	-0.584154	-19.583	
1.05872	20.5188	13.271	-0.579138	-19.4601	
1.12019	20.5874	13.1767	-0.573495	-19.4672	
1.07921	20.704	13.2373	-0.566285	-19.6248	
0.997244	20.7795	13.1969	-0.559074	-19.7822	
1.0109	20.8549	13.17	-0.553745	-19.844	
0.976752	20.951	13.1767	-0.549042	-19.9742	
1.00407	20.9304	13.1228	-0.544653	-19.9263	
0.819651	21.0676	13.0892	-0.539324	-20.2479	
0.915278	21.0333	13.17	-0.534621	-20.118	
1.07921	21.1019	13.1498	-0.530546	-20.0227	
1.03823	21.1499	13.1228	-0.526157	-20.1117	
0.833312	21.1362	13.0757	-0.521454	-20.3029	
0.901617	21.1431	13.0488	-0.515811	-20.2414	
1.02457	21.1774	13.069	-0.509541	-20.1528	
0.867464	21.1705	13.1161	-0.503271	-20.303	
0.853803	21.1636	13.1094	-0.497315	-20.3098	
1.00407	21.0813	13.042	-0.491358	-20.0772	
0.94943	21.0539	13.0555	-0.487596	-20.1044	
0.799159	21.0882	13.0555	-0.486029	-20.289	
0.840142	21.0127	13.0218	-0.485402	-20.1726	
0.94943	20.9921	13.0083	-0.486342	-20.0427	
0.894786	20.9715	12.9814	-0.484775	-20.0768	
0.990413	20.9235	12.9612	-0.484775	-19.9331	
0.915278	20.8755	12.9881	-0.484461	-19.9602	
0.860634	20.8138	12.9275	-0.484461	-19.9531	
1.02457	20.7177	12.9545	-0.485402	-19.6932	
0.819651	20.7109	12.9208	-0.484461	-19.8912	
0.887956	20.5805	12.8938	-0.483834	-19.6926	
0.901617	20.5394	12.9208	-0.482267	-19.6377	
0.703532	20.4982	12.9006	-0.480699	-19.7947	
0.901617	20.4845	12.8938	-0.480699	-19.5829	
0.819651	20.3747	12.9073	-0.480386	-19.5551	
0.881125	20.3816	12.8602	-0.478505	-19.5004	
0.683041	20.313	12.84	-0.476624	-19.6299	
0.860634	20.3884	12.8063	-0.473489	-19.5278	
0.819651	20.4227	12.813	-0.468786	-19.6031	
0.717193	20.3884	12.8198	-0.462516	-19.6712	
0.792329	20.3404	12.7928	-0.454992	-19.5481	
0.751346	20.361	12.7726	-0.445901	-19.6096	
0.724024	20.3336	12.7861	-0.435555	-19.6095	
0.655719	20.2992	12.7726	-0.425523	-19.6435	
0.683041	20.313	12.8198	-0.414551	-19.6299	
0.744515	20.2375	12.7187	-0.402324	-19.493	
0.642058	20.2032	12.7524	-0.390098	-19.5611	
0.607905	20.2101	12.7389	-0.379439	-19.6022	
0.553261	20.2169	12.7187	-0.370661	-19.6637	
0.491787	20.1758	12.7322	-0.364077	-19.684	
0.594244	20.0934	12.6918	-0.360315	-19.4992	
0.553261	20.0454	12.7053	-0.355926	-19.4922	
0.478126	19.9425	12.685	-0.349656	-19.4644	
0.491787	19.8671	12.6514	-0.340251	-19.3753	
0.5396	19.8053	12.685	-0.328965	-19.2657	
0.491787	19.723	12.6379	-0.31956	-19.2312	
0.443973	19.5995	12.611	-0.312663	-19.1555	
0.655719	19.5172	12.5975	-0.30608	-18.8615	
0.546431	19.4829	12.611	-0.301064	-18.9365	
0.450804	19.4006	12.5436	-0.295107	-18.9498	
0.525939	19.3388	12.4897	-0.290091	-18.8129	
0.498617	19.2496	12.483	-0.286643	-18.751	
0.430312	19.1948	12.5032	-0.286329	-18.7644	
0.471295	19.1536	12.456	-0.286016	-18.6823	
0.566922	19.133	12.4089	-0.284135	-18.5661	
0.443973	19.1056	12.355	-0.281626	-18.6616	
0.464465	19.133	12.4022	-0.279745	-18.6686	
0.566922	19.1399	12.3415	-0.278491	-18.573	
0.478126	19.1124	12.3281	-0.277864	-18.6343	
0.53277	19.2222	12.2877	-0.275356	-18.6894	
0.478126	19.1879	12.254	-0.272221	-18.7098	
0.40299	19.2291	12.2472	-0.267519	-18.8261	
0.39616	19.2839	12.254	-0.26407	-18.8878	
0.53277	19.3251	12.2068	-0.260622	-18.7923	
0.464465	19.3388	12.1934	-0.25686	-18.8744	
0.40299	19.3457	12.1866	-0.253411	-18.9427	
0.519109	19.428	12.2001	-0.25153	-18.9089	
0.450804	19.5035	12.2203	-0.249022	-19.0527	
0.409821	19.5515	12.1664	-0.246828	-19.1417	
0.416651	19.627	12.1395	-0.24432	-19.2103	
0.375668	19.7093	12.1462	-0.240871	-19.3336	
0.362007	19.771	12.1125	-0.237109	-19.409	
0.423482	19.8602	12.1058	-0.234601	-19.4367	
0.430312	19.9768	12.1125	-0.232407	-19.5465	
0.5396	20.0797	12.0452	-0.229272	-19.5401	
0.443973	20.1689	12.0923	-0.22551	-19.7249	
0.471295	20.2512	12.0856	-0.222688	-19.7799	
0.389329	20.3473	12.0384	-0.21924	-19.9579	
0.355177	20.4913	12.0048	-0.216732	-20.1362	
0.437143	20.5737	12.0452	-0.215478	-20.1365	
0.362007	20.7383	12.0182	-0.21391	-20.3763	
0.232228	20.7863	12.0384	-0.210462	-20.5541	
0.327855	20.9167	12.0115	-0.207954	-20.5888	
0.450804	21.095	11.9846	-0.205759	-20.6442	
0.314194	21.2117	11.9913	-0.205132	-20.8975	
0.26638	21.342	11.9846	-0.204819	-21.0756	
0.560092	21.5135	11.9913	-0.205446	-20.9534	
0.368838	21.637	11.9239	-0.206073	-21.2681	
0.375668	21.7948	11.9441	-0.207327	-21.4191	
0.314194	21.9731	11.9441	-0.20764	-21.6589	
0.389329	22.1172	11.8566	-0.20764	-21.7279	
0.382499	22.2681	11.897	-0.207954	-21.8856	
0.443973	22.4808	11.9172	-0.209521	-22.0368	
0.39616	22.6386	11.9037	-0.209208	-22.2424	
0.362007	22.8101	11.9037	-0.208267	-22.4481	
0.334685	22.9541	11.8835	-0.207327	-22.6195	
0.362007	23.0913	11.9037	-0.205446	-22.7293	
0.321024	23.2903	11.9374	-0.202938	-22.9693	
0.321024	23.4412	11.8701	-0.200116	-23.1202	
0.300533	23.5441	11.9374	-0.197922	-23.2436	
0.362007	23.6333	11.8431	-0.196041	-23.2713	
0.314194	23.7499	11.9037	-0.194473	-23.4357	
0.307363	23.7979	11.8835	-0.193219	-23.4906	
0.362007	23.8665	11.9307	-0.191965	-23.5045	
0.307363	23.846	11.8768	-0.189771	-23.5386	
0.430312	23.8528	11.8835	-0.189144	-23.4225	
0.368838	23.846	11.9037	-0.188203	-23.4771	
0.245889	23.7774	11.897	-0.187263	-23.5315	
0.293702	23.7225	11.8768	-0.186949	-23.4288	
0.39616	23.6607	11.9239	-0.184755	-23.2646	
0.293702	23.6059	11.8633	-0.183187	-23.3121	
0.232228	23.5373	11.9374	-0.18256	-23.305	
0.245889	23.4138	11.8566	-0.18162	-23.1679	
0.314194	23.3314	11.8431	-0.180679	-23.0173	
0.382499	23.2285	11.8633	-0.180366	-22.846	
0.409821	23.1394	11.8633	-0.179739	-22.7295	
0.321024	23.0708	11.8229	-0.179425	-22.7497	
0.184414	22.961	11.8835	-0.178485	-22.7766	
0.26638	22.8718	11.8768	-0.175977	-22.6054	
0.368838	22.8512	11.8499	-0.175036	-22.4824	
0.273211	22.7346	11.8633	-0.174096	-22.4614	
0.348346	22.6934	11.8431	-0.173469	-22.3451	
0.184414	22.5768	11.8768	-0.171901	-22.3924	
0.280041	22.5288	11.8566	-0.170334	-22.2488	
0.239058	22.4945	11.8431	-0.167512	-22.2554	
0.252719	22.3916	11.8296	-0.165004	-22.1389	
0.245889	22.3504	11.8499	-0.164377	-22.1046	
0.245889	22.2544	11.8903	-0.16281	-22.0085	
0.218567	22.1515	11.8903	-0.161242	-21.9329	
0.389329	22.1241	11.9105	-0.158734	-21.7347	
0.375668	22.076	11.8701	-0.15748	-21.7004	
0.204906	21.9594	11.9172	-0.156853	-21.7545	
0.245889	21.9045	11.9105	-0.156226	-21.6586	
0.307363	21.8359	11.9239	-0.156226	-21.5286	
0.321024	21.7742	11.9172	-0.155599	-21.4532	
0.375668	21.7605	11.9374	-0.156226	-21.3848	
0.375668	21.7124	11.897	-0.155286	-21.3368	
0.239058	21.6233	11.9644	-0.155286	-21.3842	
0.232228	21.5615	11.9239	-0.155913	-21.3293	
0.191245	21.5409	11.9374	-0.154032	-21.3497	
0.163923	21.5341	11.9307	-0.152778	-21.3702	
0.218567	21.4998	11.998	-0.149016	-21.2812	
0.177584	21.4723	11.9778	-0.146508	-21.2948	
0.280041	21.5066	11.9846	-0.142746	-21.2266	
0.25955	21.5066	11.9778	-0.13773	-21.2471	
0.293702	21.5478	11.9913	-0.133027	-21.2541	
0.191245	21.6027	11.9778	-0.130206	-21.4114	
0.198075	21.5684	12.0115	-0.128638	-21.3703	
0.204906	21.6576	12.0587	-0.127698	-21.4527	
0.204906	21.6713	12.0115	-0.128325	-21.4664	
0.273211	21.6987	12.0384	-0.126444	-21.4255	
0.232228	21.7673	12.0452	-0.12519	-21.5351	
0.211736	21.7467	12.0654	-0.124249	-21.535	
0.0956178	21.7948	12.0721	-0.123309	-21.6991	
0.211736	21.8291	12.0856	-0.123309	-21.6173	
0.273211	21.7879	12.0856	-0.123622	-21.5147	
0.191245	21.733	12.0991	-0.123622	-21.5418	
0.163923	21.7948	12.1125	-0.123936	-21.6308	
0.211736	21.7467	12.1664	-0.123622	-21.535	
0.273211	21.7056	12.1597	-0.122368	-21.4324	
0.0682958	21.6919	12.1529	-0.121741	-21.6236	
0.204906	21.6438	12.1664	-0.121114	-21.4389	
0.198075	21.589	12.1529	-0.120801	-21.3909	
0.136601	21.5547	12.1395	-0.121741	-21.4181	
0.239058	21.5066	12.1799	-0.122682	-21.2676	
0.252719	21.4723	12.1597	-0.123622	-21.2196	
0.136601	21.4037	12.1866	-0.123936	-21.2671	
0.293702	21.3351	12.1934	-0.123936	-21.0414	
0.348346	21.2391	12.1799	-0.124249	-20.8907	
0.177584	21.2185	12.2001	-0.124249	-21.0409	
0.239058	21.1225	12.2068	-0.124876	-20.8834	
0.116109	21.0882	12.1597	-0.124876	-20.9721	
0.293702	20.9715	12.227	-0.12519	-20.6778	
0.307363	20.9235	12.227	-0.124876	-20.6162	
0.0887873	20.8069	12.2472	-0.124563	-20.7181	
0.184414	20.752	12.227	-0.124249	-20.5676	
0.280041	20.7314	12.2472	-0.12519	-20.4514	
0.341516	20.6354	12.2405	-0.125817	-20.2939	
0.150262	20.6148	12.2203	-0.125817	-20.4646	
0.143431	20.6011	12.2136	-0.126444	-20.4577	
0.273211	20.6491	12.2472	-0.126757	-20.3759	
0.198075	20.6834	12.2742	-0.125503	-20.4853	
0.0819568	20.6354	12.2877	-0.124249	-20.5534	
0.116109	20.6217	12.2877	-0.123309	-20.5056	
0.252719	20.6628	12.3011	-0.120487	-20.4101	
0.0956178	20.6011	12.3079	-0.117666	-20.5055	
0.25955	20.5737	12.2809	-0.114217	-20.3141	
0.163923	20.4913	12.2405	-0.111709	-20.3274	
0.143431	20.4776	12.3079	-0.108574	-20.3342	
0.184414	20.4776	12.3079	-0.106693	-20.2932	
0.280041	20.4433	12.2809	-0.104185	-20.1633	
0.116109	20.4227	12.3079	-0.101677	-20.3066	
0.0478043	20.4159	12.2944	-0.0988559	-20.3681	
0.0136518	20.3198	12.2607	-0.0960344	-20.3062	
0.170753	20.2581	12.3281	-0.0935264	-20.0873	
0.0478043	20.1552	12.2809	-0.0907049	-20.1074	
0.163923	20.0386	12.3079	-0.0875699	-19.8746	
0.0956178	19.9905	12.2742	-0.0838079	-19.8949	
0.198075	19.8533	12.2809	-0.0797324	-19.6553	
0.280041	19.7642	12.2944	-0.0762839	-19.4841	
0.177584	19.7024	12.3011	-0.0740894	-19.5248	
0.116109	19.5858	12.2674	-0.0734624	-19.4697	
0.102448	19.5035	12.254	-0.0737759	-19.401	
0.239058	19.476	12.2405	-0.0753434	-19.237	
0.211736	19.4417	12.2405	-0.0772244	-19.23	
0.184414	19.3937	12.1866	-0.0800459	-19.2093	
0.184414	19.332	12.2001	-0.0838079	-19.1476	
0.150262	19.3182	12.1934	-0.0866294	-19.168	
0.177584	19.2977	12.1125	-0.0903914	-19.1201	
0.300533	19.3114	12.1529	-0.0922724	-19.0109	
0.232228	19.3045	12.1125	-0.0932129	-19.0723	
0.232228	19.2977	12.1125	-0.0938399	-19.0654	
0.177584	19.3594	12.1395	-0.0938399	-19.1818	
0.177584	19.3457	12.0384	-0.0941534	-19.1681	
0.163923	19.3868	12.0923	-0.0919589	-19.2229	
0.170753	19.4074	12.1462	-0.0900779	-19.2367	
0.211736	19.4966	12.0923	-0.0888239	-19.2849	
0.0273128	19.4829	12.1193	-0.0866294	-19.4556	
0.184414	19.5378	12.0923	-0.0853754	-19.3534	
0.239058	19.627	12.0721	-0.0841214	-19.3879	
-0.00683968	19.627	12.0587	-0.0831809	-19.6338	
0.0682958	19.7093	12.0452	-0.0816134	-19.641	
0.232228	19.7573	12.025	-0.0809864	-19.5251	
0.184414	19.8053	12.0654	-0.0791054	-19.6209	
0.12294	19.8465	12.0182	-0.0778514	-19.7235	
0.143431	19.97	12.0317	-0.0765974	-19.8265	
0.0682958	20.0043	12.0317	-0.0740894	-19.936	
0.136601	20.0523	12.0587	-0.0725219	-19.9157	
0.170753	20.2032	12.0721	-0.0712679	-20.0325	
0.191245	20.2169	12.0115	-0.0693869	-20.0257	
0.0887873	20.3541	12.0317	-0.0681329	-20.2653	
0.0478043	20.361	12.0452	-0.0668789	-20.3132	
0.157092	20.4708	12.0115	-0.0653114	-20.3137	
0.204906	20.6285	12.0048	-0.0646844	-20.4236	
0.0751263	20.7452	12.0384	-0.0637439	-20.67	
0.0956178	20.8069	11.9846	-0.0624898	-20.7113	
0.109279	20.9304	11.9913	-0.0615493	-20.8211	
0.136601	21.0127	12.025	-0.0606088	-20.8761	
0.136601	21.1431	11.9778	-0.0590413	-21.0064	
0.0956178	21.2391	11.9778	-0.0584143	-21.1435	
0.252719	21.4243	11.9711	-0.0581008	-21.1716	
0.143431	21.4998	11.9846	-0.0574738	-21.3563	
0.0546348	21.6713	11.9711	-0.0581008	-21.6166	
0.239058	21.7948	11.9509	-0.0587278	-21.5557	
0.109279	21.9594	11.9509	-0.0602953	-21.8501	
0.102448	22.1035	11.9576	-0.0618628	-22.001	
0.12294	22.227	11.9441	-0.0646844	-22.104	
0.109279	22.3779	11.9846	-0.0678194	-22.2686	
0.0273128	22.4876	11.9711	-0.0706409	-22.4603	
0.150262	22.6248	11.9778	-0.0731489	-22.4746	
0.150262	22.7483	11.9913	-0.0759704	-22.5981	
-0.0409922	22.8444	11.998	-0.0765974	-22.8854	
0.184414	22.8924	12.0115	-0.0765974	-22.708	
0.150262	22.9884	12.025	-0.0765974	-22.8382	
0.211736	23.0502	11.998	-0.0750299	-22.8384	
0.136601	23.0982	12.0182	-0.0731489	-22.9616	
0.0273128	23.0913	12.0115	-0.0700139	-23.064	
0.136601	23.1531	11.9913	-0.0687599	-23.0165	
0.0819568	23.1051	12.0587	-0.0675059	-23.0231	
0.170753	23.0845	12.0115	-0.0662519	-22.9137	
0.116109	23.0708	11.9711	-0.0653114	-22.9546	
0.204906	23.0502	11.9913	-0.0659384	-22.8453	
0.0887873	22.9679	12.0182	-0.0668789	-22.8791	
0.177584	22.865	12.0519	-0.0684464	-22.6874	
0.143431	22.7964	12.0115	-0.0706409	-22.6529	
0.198075	22.7552	12.0587	-0.0734624	-22.5571	
0.170753	22.6729	12.0115	-0.0753434	-22.5021	
0.150262	22.6043	12.0452	-0.0772244	-22.454	
0.116109	22.5494	12.0452	-0.0794189	-22.4333	
0.143431	22.4465	12.0587	-0.0809864	-22.3031	
0.218567	22.4122	12.0452	-0.0841214	-22.1936	
0.102448	22.3573	12.025	-0.0863159	-22.2549	
0.0819568	22.2956	12.0519	-0.0881969	-22.2136	
0.143431	22.2407	12.0721	-0.0900779	-22.0972	
0.12977	22.1927	12.1125	-0.0910184	-22.0629	
0.0887873	22.1446	12.0856	-0.0916454	-22.0558	
0.218567	22.1172	12.0991	-0.0922724	-21.8986	
0.157092	22.0349	12.1193	-0.0932129	-21.8778	
0.157092	22.0006	12.0856	-0.0925859	-21.8435	
0.12294	21.9388	12.0587	-0.0913319	-21.8159	
0.136601	21.8702	12.1597	-0.0900779	-21.7336	
0.12294	21.8291	12.1529	-0.0897644	-21.7061	
0.0887873	21.7399	12.1395	-0.0878834	-21.6511	
0.143431	21.6987	12.1664	-0.0872564	-21.5553	
0.204906	21.6438	12.2001	-0.0863159	-21.4389	
0.0819568	21.6095	12.1799	-0.0834944	-21.5276	
0.0546348	21.5615	12.1597	-0.0822404	-21.5069	
0.0887873	21.4861	12.1799	-0.0809864	-21.3973	
0.177584	21.4449	12.2068	-0.0797324	-21.2673	
0.157092	21.4243	12.2203	-0.0784784	-21.2672	
0.0136518	21.3146	12.2338	-0.0778514	-21.3009	
0.0136518	21.3146	12.2136	-0.0781649	-21.3009	
0.170753	21.2871	12.2607	-0.0769109	-21.1164	
0.0887873	21.2871	12.2742	-0.0753434	-21.1983	
0.116109	21.294	12.2405	-0.0744029	-21.1779	
0.0887873	21.294	12.2338	-0.0731489	-21.2052	
0.0546348	21.3008	12.2607	-0.0712679	-21.2462	
0.102448	21.3008	12.2607	-0.0700139	-21.1984	
0.12977	21.39	12.3011	-0.0681329	-21.2602	
0.102448	21.3626	12.3079	-0.0649979	-21.2601	
0.0341433	21.4175	12.2742	-0.0624898	-21.3833	
0.191245	21.5066	12.3281	-0.0599818	-21.3154	
0.0682958	21.4792	12.3348	-0.0577873	-21.4109	
0.0956178	21.5272	12.355	-0.0562198	-21.4316	
0.12294	21.5615	12.3146	-0.0546523	-21.4386	
0.0819568	21.5684	12.3685	-0.0530848	-21.4864	
0.116109	21.5821	12.382	-0.0521443	-21.466	
0.0478043	21.589	12.3415	-0.0508903	-21.5412	
0.184414	21.589	12.456	-0.0505768	-21.4045	
0.0956178	21.5821	12.4224	-0.0505768	-21.4865	
0.116109	21.5547	12.456	-0.0512038	-21.4386	
0.191245	21.5409	12.456	-0.0515173	-21.3497	
0.0751263	21.5684	12.4762	-0.0524578	-21.4933	
0.218567	21.4998	12.4762	-0.0537118	-21.2812	
0.170753	21.438	12.5032	-0.0549658	-21.2673	
0.0751263	21.4586	12.4897	-0.0568468	-21.3835	
0.204906	21.3557	12.5099	-0.0584143	-21.1508	
0.136601	21.3351	12.5369	-0.0593548	-21.1985	
0.239058	21.2734	12.5301	-0.0612358	-21.0343	
0.232228	21.246	12.5436	-0.0624898	-21.0137	
0.0273128	21.1979	12.5571	-0.0637439	-21.1706	
0.102448	21.1087	12.5571	-0.0646844	-21.0063	
0.170753	20.999	12.5032	-0.0659384	-20.8282	
0.157092	20.951	12.611	-0.0668789	-20.7939	
0.184414	20.8618	12.5571	-0.0690734	-20.6774	
0.12294	20.7932	12.611	-0.0712679	-20.6702	
0.163923	20.7246	12.6514	-0.0725219	-20.5607	
0.102448	20.6903	12.6312	-0.0740894	-20.5878	
0.0546348	20.6011	12.611	-0.0756569	-20.5465	
0.0956178	20.5531	12.6042	-0.0759704	-20.4575	
0.157092	20.4982	12.6312	-0.0765974	-20.3411	
0.12294	20.4913	12.584	-0.0769109	-20.3684	
0.12977	20.5599	12.6244	-0.0765974	-20.4302	
0.0273128	20.5668	12.6379	-0.0762839	-20.5395	
0.0682958	20.5256	12.6244	-0.0753434	-20.4573	
0.0204823	20.5256	12.611	-0.0740894	-20.5052	
0.102448	20.4296	12.712	-0.0744029	-20.3271	
0.0614653	20.4639	12.6514	-0.0734624	-20.4024	
0.102448	20.4159	12.685	-0.0715814	-20.3134	
0.0273128	20.3541	12.6783	-0.0690734	-20.3268	
0.0614653	20.2855	12.685	-0.0678194	-20.2241	
0.0956178	20.2649	12.6514	-0.0656249	-20.1693	
0.0546348	20.2581	12.7187	-0.0634303	-20.2035	
0.0956178	20.1895	12.7053	-0.0612358	-20.0939	
0.163923	20.1758	12.7322	-0.0593548	-20.0118	
0.0273128	20.1552	12.7053	-0.0584143	-20.1279	
0.0409738	20.0729	12.7457	-0.0546523	-20.0319	
-0.0409922	19.9219	12.7591	-0.0508903	-19.9629	
-0.0409922	19.8465	12.7187	-0.0477553	-19.8875	
0.102448	19.7367	12.6985	-0.0439933	-19.6343	
0.0409738	19.6544	12.7187	-0.0396043	-19.6134	
0.12977	19.5789	12.7389	-0.0349018	-19.4492	
0.0273128	19.4623	12.6985	-0.0320803	-19.435	
-0.0273312	19.4211	12.6783	-0.0292588	-19.4485	
0.170753	19.2771	12.712	-0.0264373	-19.1063	
0.0751263	19.2565	12.6312	-0.0254968	-19.1814	
0.0751263	19.2153	12.6244	-0.0245563	-19.1402	
-0.00683968	19.1742	12.6716	-0.0248698	-19.181	
0.0478043	19.1467	12.6244	-0.0258103	-19.0989	
0.102448	19.1536	12.6648	-0.0280048	-19.0512	
0.0887873	19.1262	12.6244	-0.0295723	-19.0374	
0.143431	19.1536	12.6177	-0.0314533	-19.0102	
0.12294	19.1605	12.6042	-0.0333343	-19.0375	
0.0273128	19.1605	12.5773	-0.0342748	-19.1331	
-0.0546532	19.1673	12.5773	-0.0349018	-19.222	
0.0273128	19.1605	12.584	-0.0349018	-19.1331	
0.116109	19.2085	12.5773	-0.0352153	-19.0924	
0.0887873	19.2496	12.5773	-0.0336478	-19.1609	
0.0409738	19.2702	12.5436	-0.0320803	-19.2292	
0.0204823	19.2908	12.5773	-0.0314533	-19.2703	
-0.0614837	19.3388	12.5773	-0.0295723	-19.4003	
0.198075	19.3594	12.5436	-0.0267508	-19.1613	
0.0273128	19.428	12.5907	-0.0248698	-19.4007	
-9.18019E-006	19.4623	12.5167	-0.0236158	-19.4623	
0.0887873	19.5378	12.5369	-0.0217348	-19.449	
0.0956178	19.5721	12.5571	-0.0195403	-19.4765	
0.0751263	19.6338	12.5167	-0.0176593	-19.5587	
0.0546348	19.5927	12.5167	-0.0160918	-19.538	
-0.0273312	19.7161	12.4965	-0.0151513	-19.7435	
0.116109	19.7779	12.4628	-0.0132703	-19.6618	
-0.102467	19.8533	12.5234	-0.0117028	-19.9558	
-0.0409922	19.9768	12.4965	-0.0107623	-20.0178	
0.0273128	20.018	12.4628	-0.0104488	-19.9907	
-0.0341617	20.0797	12.483	-0.00919481	-20.1139	
0.0136518	20.2169	12.4695	-0.00888131	-20.2033	
-0.0205007	20.2581	12.4695	-0.00825431	-20.2786	
0.0341433	20.3816	12.5032	-0.00825431	-20.3474	
0.0273128	20.4365	12.4358	-0.00794081	-20.4091	
0.0614653	20.5599	12.4089	-0.00762731	-20.4985	
-0.0478227	20.6491	12.4156	-0.00700031	-20.6969	
0.163923	20.752	12.4156	-0.00762731	-20.5881	
-0.0409922	20.9098	12.4291	-0.00762731	-20.9508	
0.0887873	20.9167	12.3685	-0.00731381	-20.8279	
-0.0136702	21.1362	12.4156	-0.00825431	-21.1499	
0.109279	21.2254	12.4022	-0.00825431	-21.1161	
-0.0546532	21.3077	12.3752	-0.00762731	-21.3623	
-0.0683142	21.3832	12.4022	-0.00825431	-21.4515	
-0.122958	21.5066	12.3483	-0.00856781	-21.6296	
-0.0273312	21.589	12.3617	-0.00856781	-21.6163	
-0.0751447	21.685	12.3954	-0.00888131	-21.7601	
-9.18019E-006	21.781	12.3887	-0.00856781	-21.7811	
0.0478043	21.8771	12.355	-0.00762731	-21.8293	
-0.0614837	21.9731	12.382	-0.00794081	-22.0346	
-0.00683968	22.0898	12.382	-0.00700031	-22.0966	
-0.116128	22.1241	12.3617	-0.00543281	-22.2402	
-0.116128	22.1309	12.3752	-0.00386531	-22.247	
-0.0478227	22.1652	12.3752	-0.000730307	-22.213	
-0.0341617	22.2064	12.3146	0.0020912	-22.2405	
-0.177602	22.1584	12.3483	0.0061667	-22.336	
-0.109297	22.1103	12.2944	0.0118097	-22.2196	
-0.122958	22.0212	12.3213	0.0187067	-22.1441	
-0.14345	21.9045	12.3079	0.0246632	-22.048	
-0.218585	21.8359	12.3011	0.0334412	-22.0545	
-0.157111	21.7536	12.2809	0.0397112	-21.9107	
-0.15028	21.6027	12.254	0.0472352	-21.753	
-0.0956362	21.4929	12.2607	0.0541322	-21.5886	
-0.109297	21.3969	12.2472	0.0604022	-21.5062	
-0.204924	21.2597	12.254	0.0660452	-21.4646	
-0.211755	21.0882	12.2068	0.0710612	-21.2999	
-0.307382	20.9715	12.2001	0.0763907	-21.2789	
-0.15028	20.8138	12.1462	0.0832878	-20.964	
-0.28689	20.6766	12.1934	0.0908118	-20.9634	
-0.300551	20.5119	12.1529	0.0980223	-20.8125	
-0.341534	20.409	12.2068	0.10586	-20.7505	
-0.307382	20.2375	12.1327	0.113697	-20.5449	
-0.28006	20.1826	12.1193	0.122162	-20.4627	
-0.327873	20.0043	12.1732	0.130313	-20.3321	
-0.430331	19.8328	12.1058	0.138464	-20.2631	
-0.389348	19.6681	12.0789	0.147869	-20.0575	
-0.437161	19.5515	12.0923	0.156647	-19.9887	
-0.450822	19.4349	12.126	0.164171	-19.8857	
-0.409839	19.2839	12.0384	0.172322	-19.6938	
-0.491805	19.1056	12.0587	0.180786	-19.5974	
-0.587432	18.9272	12.1058	0.191445	-19.5146	
-0.566941	18.7351	11.9778	0.20085	-19.3021	
-0.532788	18.694	12.0452	0.212136	-19.2268	
-0.669398	18.447	12.0789	0.223422	-19.1164	
-0.642076	18.3098	11.998	0.234708	-18.9519	
-0.628415	18.1795	11.9711	0.246621	-18.8079	
-0.717212	17.9942	12.0048	0.259161	-18.7114	
-0.635246	17.8639	11.9778	0.270447	-18.4991	
-0.69672	17.7061	11.9576	0.279539	-18.4028	
-0.69672	17.6032	11.9374	0.28863	-18.2999	
-0.717212	17.4729	11.9239	0.298976	-18.1901	
-0.758195	17.3425	11.9644	0.309635	-18.1007	
-0.874313	17.219	11.9441	0.321548	-18.0933	
-0.799178	17.0955	11.8903	0.33252	-17.8947	
-1.01092	17.0338	11.9172	0.342866	-18.0447	
-0.942618	16.9172	11.9239	0.351957	-17.8598	
-0.874313	16.8692	11.9509	0.361989	-17.7435	
-0.887974	16.7731	11.9037	0.370767	-17.6611	
-0.935788	16.732	11.8835	0.380799	-17.6677	
-1.03825	16.6908	11.8903	0.390831	-17.729	
-1.04508	16.6359	11.9239	0.40055	-17.681	
-1.1407	16.5742	11.8701	0.410895	-17.7149	
-0.935788	16.5879	11.8633	0.422495	-17.5237	
-1.14753	16.5124	11.8162	0.434408	-17.66	
-1.06557	16.4919	11.8499	0.446948	-17.5574	
-1.10655	16.485	11.8633	0.458861	-17.5915	
-1.15436	16.4438	11.897	0.470147	-17.5982	
-1.05874	16.4164	11.8835	0.477985	-17.4751	
-1.06557	16.3066	11.8835	0.483314	-17.3722	
-1.12021	16.238	11.8768	0.489271	-17.3582	
-1.03825	16.2037	11.8633	0.495227	-17.242	
-1.12704	16.19	11.8566	0.501184	-17.317	
-1.03825	16.0597	11.8633	0.505573	-17.0979	
-1.17486	15.9979	11.8499	0.506827	-17.1728	
-1.11338	15.9156	11.8566	0.508081	-17.029	
-1.03825	15.7784	11.8701	0.509021	-16.8166	
-1.01775	15.7715	11.8296	0.509962	-16.7893	
-1.11338	15.6	11.8768	0.510902	-16.7134	
-1.19535	15.5246	11.8499	0.510275	-16.7199	
-1.00409	15.4422	11.9172	0.508394	-16.4463	
-0.867483	15.3188	11.9037	0.5062	-16.1862	
-0.997262	15.1884	11.8903	0.503065	-16.1857	
-1.05191	15.0924	11.9037	0.49993	-16.1443	
-0.867483	14.9963	11.8903	0.497108	-15.8638	
-0.949449	14.9003	11.9037	0.494914	-15.8497	
-0.874313	14.7562	11.897	0.492092	-15.6305	
-1.04508	14.6533	11.9037	0.488644	-15.6984	
-0.908466	14.5641	11.8903	0.483314	-15.4726	
-1.05191	14.3926	11.9105	0.477985	-15.4445	
-0.8265	14.3583	11.9307	0.473282	-15.1848	
-0.935788	14.2486	11.897	0.46952	-15.1844	
-0.997262	14.18	11.9307	0.464818	-15.1772	
-1.00409	14.228	11.9307	0.460742	-15.2321	
-0.928957	14.1937	11.9307	0.456353	-15.1227	
-0.908466	14.132	11.9644	0.454159	-15.0404	
-0.96311	14.1731	11.9778	0.454159	-15.1362	
-1.09972	14.1251	11.9778	0.454472	-15.2248	
-0.928957	14.0702	12.0048	0.454159	-14.9992	
-0.983601	14.0291	11.9778	0.455726	-15.0127	
-1.05874	13.9673	11.9846	0.457294	-15.026	
-1.05191	13.885	12.0115	0.459175	-14.9369	
-1.05874	13.8232	12.0048	0.461056	-14.882	
-1.10655	13.7752	12.0384	0.463564	-14.8818	
-1.03141	13.6517	12.0384	0.465758	-14.6832	
-1.05874	13.6312	12.0115	0.468266	-14.6899	
-1.1407	13.5694	11.9846	0.472028	-14.7101	
-1.13387	13.4734	12.0115	0.477044	-14.6073	
-1.22267	13.4116	12.0452	0.482687	-14.6343	
-0.96994	13.3019	11.998	0.488957	-14.2718	
-1.09972	13.2127	12.025	0.49366	-14.3124	
-1.03825	13.1029	12.0182	0.496795	-14.1412	
-1.0724	13.0206	12.0317	0.499303	-14.093	
-1.24316	12.904	12.025	0.501184	-14.1471	
-1.01775	12.8628	12.0048	0.503692	-13.8806	
-1.13387	12.705	11.9644	0.50714	-13.8389	
-1.09972	12.6227	11.9913	0.509335	-13.7224	
-1.03825	12.5816	11.9711	0.512156	-13.6198	
-1.20218	12.5335	11.9846	0.51341	-13.7357	
-1.03141	12.4581	11.9374	0.513724	-13.4895	
-0.949449	12.4169	11.9307	0.514037	-13.3664	
-1.17486	12.362	11.9711	0.513724	-13.5369	
-1.21584	12.362	11.9374	0.51341	-13.5779	
-1.07923	12.2934	11.9644	0.510902	-13.3727	
-1.18852	12.2797	11.9711	0.509335	-13.4682	
-1.13387	12.2523	11.897	0.507767	-13.3861	
-0.997262	12.266	11.9239	0.509021	-13.2633	
-1.18169	12.218	11.9441	0.509962	-13.3997	
-1.26365	12.218	11.8835	0.514037	-13.4816	
-1.20901	12.2523	11.9307	0.518113	-13.4613	
-1.09289	12.2523	11.9037	0.521875	-13.3452	
-1.25682	12.218	11.8835	0.524069	-13.4748	
-1.12704	12.2591	11.9172	0.52595	-13.3862	
-1.16802	12.2042	11.9239	0.526891	-13.3723	
-1.18169	12.2934	11.9037	0.528145	-13.4751	
-1.18169	12.2934	11.8701	0.53128	-13.4751	
-1.25682	12.2797	11.9172	0.535669	-13.5365	
-1.32513	12.3758	11.9172	0.538804	-13.7009	
-1.10655	12.3483	11.8499	0.541939	-13.4549	
-1.32513	12.4169	11.897	0.544447	-13.742	
-1.37977	12.4444	11.8499	0.548836	-13.8241	
-1.28414	12.4924	11.9239	0.553538	-13.7765	
-1.35928	12.513	11.8633	0.559495	-13.8722	
-1.48906	12.5884	11.8633	0.565451	-14.0775	
-1.42075	12.6982	11.9037	0.56984	-14.1189	
-1.33196	12.6913	11.8768	0.572035	-14.0233	
-1.2978	12.7942	11.8903	0.573916	-14.092	
-1.37294	12.8354	11.9172	0.578305	-14.2083	
-1.46174	12.904	11.8566	0.583634	-14.3657	
-1.36611	12.9794	11.8701	0.58771	-14.3456	
-1.44808	13.1098	11.897	0.591158	-14.5579	
-1.44124	13.1715	11.8903	0.593666	-14.6128	
-1.51638	13.2127	11.8903	0.596488	-14.7291	
-1.35928	13.3842	11.8094	0.600563	-14.7435	
-1.3866	13.3979	11.9105	0.603698	-14.7845	
-1.30463	13.5145	11.9037	0.608401	-14.8192	
-1.37294	13.6243	11.8903	0.611222	-14.9972	
-1.48906	13.7203	11.8566	0.61373	-15.2094	
-1.42758	13.7958	11.8633	0.61373	-15.2234	
-1.37977	13.8918	11.8768	0.612476	-15.2716	
-1.46174	13.9536	11.8768	0.610909	-15.4153	
