C:\DOCUMENTS AND SETTINGS\ADMINISTRATOR\DESKTOP\EFFORT\PATIENT 25\TRACINGS\ACQ 3\EFFORTRT25_COMPLETE_OLD.ACQ
5.000000 msec/sample
5 channels
Paw
cmH2O
Peso
cmH2O
Pgas
cmH2O
Flow
L/s
PL
cmH2O
CH1	CH2	CH3	CH4	CH40	
70113	70113	70113	70113	70113	
6.04555	16.0187	13.3438	-0.00692109	-9.97312	
6.05939	15.9841	13.3644	-0.00722648	-9.92471	
6.09397	15.9703	13.3712	-0.00814267	-9.87629	
6.10781	15.9426	13.3506	-0.00814267	-9.8348	
6.09397	15.908	13.3712	-0.00753188	-9.81405	
6.07322	15.8389	13.4124	-0.00783727	-9.76565	
6.08014	15.825	13.4329	-0.00753188	-9.7449	
6.09397	15.8458	13.4466	-0.00722648	-9.75181	
6.13548	15.8665	13.4535	-0.00814267	-9.73106	
6.10089	15.8873	13.4946	-0.00692109	-9.78639	
6.08706	15.8112	13.5221	-0.00692109	-9.72415	
6.08706	15.8112	13.4946	-0.00783727	-9.72415	
6.0663	15.8112	13.5221	-0.00722648	-9.7449	
6.04555	15.8181	13.6181	-0.00722648	-9.77257	
6.09397	15.8389	13.6112	-0.00783727	-9.7449	
6.04555	15.8043	13.6181	-0.00844806	-9.75874	
6.05247	15.7835	13.6249	-0.00692109	-9.73108	
6.00405	15.7421	13.6729	-0.0102804	-9.738	
6.05247	15.749	13.6729	-0.00814267	-9.6965	
6.03172	15.7282	13.7621	-0.00844806	-9.6965	
6.00405	15.7697	13.7552	-0.00966965	-9.76567	
5.99022	15.7628	13.7484	-0.00783727	-9.77258	
5.9833	15.749	13.8032	-0.00661569	-9.76567	
6.01788	15.7697	13.7964	-0.00844806	-9.75183	
5.99022	15.825	13.8649	-0.0111966	-9.83482	
5.99022	15.7974	13.8855	-0.00844806	-9.80716	
5.99713	15.8596	13.9061	-0.00936425	-9.86248	
6.0663	15.7628	13.9403	-0.00966965	-9.6965	
6.05939	15.7835	13.9746	-0.00997504	-9.72416	
6.0663	15.7835	13.9609	-0.0111966	-9.71724	
6.08014	15.7974	13.9609	-0.00966965	-9.71724	
6.19773	15.7697	14.0021	-0.0118074	-9.57199	
6.14931	15.7766	14.0843	-0.0105858	-9.62732	
6.1839	15.7974	14.0775	-0.014556	-9.61348	
6.21156	15.7282	14.0843	-0.0154722	-9.51666	
6.23923	15.7351	14.1255	-0.0163884	-9.49591	
6.30149	15.7974	14.1461	-0.0182207	-9.49589	
6.27382	15.7351	14.1461	-0.0191369	-9.46132	
6.28073	15.7697	14.0706	-0.0200531	-9.48898	
6.3084	15.7835	14.1461	-0.0234125	-9.47514	
6.28073	15.7697	14.1666	-0.0237179	-9.48898	
6.23923	15.8181	14.1598	-0.024634	-9.57889	
6.21848	15.8181	14.1666	-0.029215	-9.59964	
6.21848	15.8112	14.1803	-0.0282988	-9.59273	
6.21848	15.8873	14.2352	-0.0334905	-9.6688	
6.10781	15.9011	14.2146	-0.0365445	-9.7933	
6.11472	15.9219	14.2009	-0.039293	-9.80713	
6.14931	15.9703	14.2901	-0.0426524	-9.82096	
6.12856	16.0533	14.2695	-0.0475387	-9.92469	
6.05939	16.0533	14.2763	-0.0466225	-9.99387	
6.07322	16.1155	14.2489	-0.0499819	-10.0423	
6.03864	16.1224	14.3175	-0.0527304	-10.0838	
6.0663	16.1501	14.3038	-0.0533412	-10.0838	
6.00405	16.2331	14.3312	-0.0524251	-10.229	
6.03172	16.2538	14.3449	-0.053952	-10.2221	
6.00405	16.2607	14.3175	-0.0518143	-10.2567	
5.93488	16.2607	14.2969	-0.0512035	-10.3258	
6.03864	16.3575	14.3518	-0.0542574	-10.3189	
5.96946	16.3783	14.3312	-0.0545628	-10.4088	
6.03172	16.4129	14.3449	-0.0560898	-10.3811	
5.99713	16.4613	14.3381	-0.0576168	-10.4641	
5.97638	16.4889	14.3175	-0.0591438	-10.5125	
5.96255	16.4751	14.3792	-0.0582276	-10.5126	
5.92796	16.5166	14.3998	-0.0542574	-10.5886	
5.92796	16.5512	14.3723	-0.0505927	-10.6232	
5.85187	16.5443	14.3998	-0.0472333	-10.6924	
5.88646	16.5373	14.3861	-0.0457063	-10.6509	
5.82421	16.5304	14.3655	-0.0417362	-10.7062	
5.79654	16.5581	14.3106	-0.0389876	-10.7615	
5.77579	16.5304	14.3518	-0.0331851	-10.7546	
5.72045	16.4958	14.3381	-0.0344067	-10.7754	
5.68586	16.4958	14.3381	-0.0353229	-10.81	
5.67203	16.4751	14.2695	-0.0359337	-10.8031	
5.69278	16.399	14.2283	-0.0365445	-10.7062	
5.72045	16.4544	14.2215	-0.0389876	-10.7339	
5.68586	16.4336	14.2009	-0.0362391	-10.7477	
5.64436	16.3921	14.1666	-0.0331851	-10.7478	
5.69278	16.4405	14.1186	-0.0310474	-10.7477	
5.65128	16.4267	14.0569	-0.027688	-10.7754	
5.67203	16.4613	14.0638	-0.0279934	-10.7892	
5.67203	16.4336	14.0226	-0.0252448	-10.7616	
5.6997	16.4474	13.9541	-0.0212747	-10.7477	
5.65128	16.4198	13.9952	-0.0176099	-10.7685	
5.64436	16.4751	13.8855	-0.0191369	-10.8307	
5.64436	16.4198	13.9335	-0.0139452	-10.7754	
5.60977	16.4682	13.8786	-0.0121128	-10.8584	
5.63053	16.4889	13.8444	-0.0127236	-10.8584	
5.58902	16.4682	13.8375	-0.011502	-10.8792	
5.58902	16.4682	13.8169	-0.0111966	-10.8792	
5.60286	16.4889	13.7758	-0.00997504	-10.8861	
5.59594	16.5304	13.7484	-0.0121128	-10.9345	
5.60286	16.5028	13.7758	-0.0105858	-10.8999	
5.63053	16.5443	13.7209	-0.00966965	-10.9137	
5.67895	16.5028	13.7621	-0.00905886	-10.8238	
5.61669	16.5443	13.6729	-0.00966965	-10.9276	
5.64436	16.565	13.6935	-0.0111966	-10.9206	
5.69278	16.5719	13.6524	-0.00875346	-10.8791	
5.72045	16.5788	13.6798	-0.00753188	-10.8584	
5.70661	16.5512	13.6249	-0.00905886	-10.8446	
5.7827	16.565	13.6112	-0.00631029	-10.7823	
5.76195	16.565	13.5632	-0.00508871	-10.8031	
5.81037	16.565	13.6112	-0.00631029	-10.7546	
5.78962	16.6411	13.5701	-0.00722648	-10.8515	
5.78962	16.6618	13.5426	-0.00386713	-10.8722	
5.83804	16.6687	13.4809	-0.00417252	-10.8307	
5.81037	16.6757	13.4946	-0.00295094	-10.8653	
5.79654	16.6826	13.5152	-0.00325634	-10.886	
5.81729	16.6826	13.5564	-0.00264555	-10.8653	
5.85187	16.6618	13.4946	-0.00508871	-10.8099	
5.83112	16.6826	13.5084	-0.00386713	-10.8514	
5.86571	16.7171	13.5015	-0.00539411	-10.8514	
5.95563	16.6964	13.4741	-0.00478332	-10.7408	
5.94871	16.6757	13.4604	-0.00692109	-10.7269	
5.96255	16.7171	13.4946	-0.00753188	-10.7546	
5.92796	16.6411	13.4398	-0.00753188	-10.7131	
5.93488	16.6895	13.5152	-0.00631029	-10.7546	
5.91413	16.6618	13.4329	-0.00478332	-10.7477	
5.96946	16.6549	13.4672	-0.00478332	-10.6854	
5.99022	16.6272	13.4809	-0.00295094	-10.637	
5.97638	16.6342	13.4672	-0.00417252	-10.6578	
5.99713	16.648	13.4741	-0.00508871	-10.6509	
5.96946	16.5028	13.5084	-0.00356173	-10.5333	
6.00405	16.5512	13.5632	-0.00295094	-10.5471	
6.01097	16.5373	13.4741	-0.00478332	-10.5264	
5.99713	16.5028	13.4946	-0.00264555	-10.5056	
6.0663	16.4474	13.5564	-0.0060049	-10.3811	
6.01097	16.3783	13.5015	-0.00661569	-10.3673	
6.03172	16.3645	13.5152	-0.00905886	-10.3327	
6.01788	16.316	13.5015	-0.00539411	-10.2982	
6.03864	16.2815	13.5769	-0.00875346	-10.2428	
6.10089	16.3022	13.5289	-0.00783727	-10.2013	
6.0663	16.2676	13.5426	-0.00997504	-10.2013	
6.10089	16.2331	13.5906	-0.0105858	-10.1322	
6.12856	16.2331	13.6044	-0.00844806	-10.1045	
6.07322	16.157	13.5906	-0.00753188	-10.0838	
6.08014	16.1501	13.5495	-0.00722648	-10.0699	
6.11472	16.1155	13.5769	-0.00875346	-10.0008	
6.08014	16.0602	13.6318	-0.00753188	-9.98003	
6.08014	16.1086	13.6249	-0.00844806	-10.0284	
6.09397	16.0394	13.6112	-0.0105858	-9.94545	
6.0663	16.0671	13.6386	-0.00844806	-10.0008	
6.07322	16.0602	13.6935	-0.00753188	-9.98695	
6.09397	16.0947	13.7072	-0.00905886	-10.0008	
6.00405	16.0256	13.7415	-0.00997504	-10.0215	
6.01097	15.9979	13.7141	-0.00997504	-9.98696	
5.99022	16.0602	13.8101	-0.00844806	-10.07	
5.96255	15.9703	13.7621	-0.0108912	-10.0077	
5.9833	15.991	13.7758	-0.00875346	-10.0077	
5.96946	15.9979	13.8306	-0.00966965	-10.0285	
5.90029	16.0118	13.8581	-0.00997504	-10.1115	
5.91413	15.9564	13.8512	-0.00753188	-10.0423	
5.92796	15.9426	13.8924	-0.00753188	-10.0146	
5.87954	15.9634	13.9129	-0.00783727	-10.0838	
5.86571	15.9841	13.9746	-0.00661569	-10.1184	
5.87262	15.9357	14.0021	-0.00997504	-10.0631	
5.91413	15.9357	14.0432	-0.00753188	-10.0216	
5.87954	15.9288	14.0432	-0.0102804	-10.0492	
5.90721	15.9357	14.0226	-0.00997504	-10.0285	
5.89338	15.9288	14.0501	-0.0111966	-10.0354	
5.87954	15.9219	14.1186	-0.00936425	-10.0423	
5.88646	15.908	14.1118	-0.00936425	-10.0216	
5.90721	15.9357	14.1529	-0.0105858	-10.0285	
5.92796	15.8458	14.1392	-0.00997504	-9.91782	
5.92796	15.8389	14.2078	-0.0118074	-9.91091	
5.9833	15.8596	14.1598	-0.0118074	-9.87632	
6.03172	15.9011	14.1803	-0.011502	-9.86939	
5.97638	15.8734	14.1598	-0.0111966	-9.89707	
6.04555	15.8596	14.1735	-0.0127236	-9.81406	
6.01788	15.825	14.1803	-0.0111966	-9.80716	
6.0663	15.8527	14.2146	-0.0108912	-9.7864	
6.11472	15.7835	14.2352	-0.00783727	-9.66882	
6.08014	15.8112	14.2215	-0.0102804	-9.73107	
6.08014	15.832	14.2215	-0.00936425	-9.75182	
6.0663	15.8458	14.2009	-0.00875346	-9.77948	
6.01788	15.8043	14.1872	-0.00844806	-9.78641	
6.01097	15.8596	14.2009	-0.00905886	-9.84865	
5.99713	15.908	14.1803	-0.00753188	-9.91089	
5.95563	15.9149	14.2352	-0.00631029	-9.95931	
5.89338	15.9564	14.1803	-0.00661569	-10.0631	
5.79654	15.9634	14.1118	-0.0056995	-10.1668	
5.75503	15.9426	14.1461	-0.00234015	-10.1876	
5.72737	15.9357	14.1323	0.00163	-10.2083	
5.58902	16.0187	14.1186	0.00193539	-10.4297	
5.57519	16.0048	14.1186	0.00590554	-10.4297	
5.44376	15.9772	14.0912	0.0114027	-10.5334	
5.42301	16.0048	14.0158	0.0156782	-10.5818	
5.30542	16.0187	14.0158	0.0211753	-10.7133	
5.257	16.0256	14.0021	0.0257563	-10.7686	
5.25008	16.0394	13.9609	0.0330858	-10.7893	
5.22933	16.074	13.9061	0.0370559	-10.8447	
5.13249	16.0463	13.9266	0.0428584	-10.9138	
5.10482	16.0602	13.8444	0.0462178	-10.9553	
5.02182	15.9634	13.8238	0.0517149	-10.9415	
4.95265	15.9703	13.8169	0.0645415	-11.0176	
4.83506	15.9841	13.7758	0.0715656	-11.149	
4.55837	15.9634	13.7209	0.0795059	-11.405	
4.52379	15.8942	13.7072	0.0813383	-11.3704	
4.55145	15.8665	13.6935	0.0901948	-11.3151	
4.4062	15.7628	13.6044	0.111572	-11.3566	
4.22635	15.7697	13.5358	0.12104	-11.5434	
4.08109	15.7213	13.4946	0.130812	-11.6402	
4.03267	15.6729	13.4535	0.123483	-11.6402	
3.97733	15.5346	13.3438	0.135088	-11.5573	
3.99809	15.5415	13.2958	0.141807	-11.5434	
4.01884	15.4793	13.2135	0.15616	-11.4604	
4.04651	15.417	13.0969	0.160741	-11.3705	
4.09493	15.3133	13.0147	0.183951	-11.2184	
4.24018	15.258	12.9392	0.212353	-11.0178	
4.34394	15.2303	12.8707	0.231288	-10.8864	
4.45462	15.1542	12.8569	0.257552	-10.6996	
4.58604	15.0782	12.7267	0.282289	-10.4921	
4.86273	15.0436	12.6581	0.326266	-10.1809	
5.11174	15.009	12.5964	0.357416	-9.89727	
5.34001	14.9537	12.5072	0.308553	-9.61368	
5.69278	14.9191	12.4867	0.296337	-9.22633	
5.99022	14.8845	12.3907	0.269462	-8.89431	
5.9833	14.8707	12.3564	0.429489	-8.8874	
6.3084	14.8292	12.3084	0.460029	-8.5208	
6.61967	14.843	12.2124	0.442011	-8.22336	
6.81335	14.7462	12.2055	0.455448	-7.93286	
7.04854	14.7531	12.1438	0.420938	-7.7046	
7.36672	14.7047	12.1301	0.478353	-7.338	
7.53965	14.6632	12.0684	0.533629	-7.12358	
7.761	14.6148	12.0272	0.55348	-6.85382	
7.92009	14.6148	11.9861	0.529354	-6.69473	
8.14144	14.5457	11.897	0.536989	-6.40423	
8.18294	14.5733	11.8695	0.499425	-6.39039	
8.05843	14.518	11.8215	0.544929	-6.45957	
8.0031	14.4973	11.7872	0.531492	-6.49416	
7.83709	14.4558	11.7392	0.53424	-6.61868	
7.88551	14.4558	11.705	0.473161	-6.57026	
7.91318	14.435	11.6981	0.470718	-6.52184	
7.96159	14.3935	11.5952	0.51836	-6.43193	
7.94776	14.3935	11.5815	0.498203	-6.44576	
7.96851	14.3382	11.5747	0.500341	-6.36969	
7.96851	14.2898	11.5335	0.506144	-6.32128	
8.01001	14.3175	11.5198	0.471329	-6.30744	
8.01693	14.2829	11.465	0.492706	-6.26594	
8.03768	14.2206	11.417	0.487209	-6.18295	
8.12069	14.2206	11.4032	0.474688	-6.09995	
8.23136	14.1307	11.3415	0.478964	-5.89937	
8.23828	14.1584	11.3141	0.485071	-5.92012	
8.27287	14.0823	11.2798	0.510114	-5.80946	
8.25903	14.0132	11.2798	0.498203	-5.75414	
8.29362	13.9302	11.225	0.505228	-5.63657	
8.27978	13.9578	11.2387	0.467359	-5.67806	
8.27978	13.9509	11.2181	0.463694	-5.67115	
8.26595	13.8749	11.225	0.494844	-5.60891	
8.29362	13.8403	11.1701	0.513779	-5.54667	
8.23136	13.785	11.1633	0.508282	-5.5536	
8.27978	13.7158	11.1495	0.5376	-5.43602	
8.23136	13.7089	11.1701	0.511336	-5.47753	
8.31437	13.6397	11.1564	0.481712	-5.32536	
4.11568	15.6176	12.2809	0.125926	-11.5019	
3.94275	15.6522	12.2741	0.131118	-11.7094	
3.9635	15.5208	12.2535	0.136615	-11.5573	
3.9635	15.4862	12.1644	0.150663	-11.5227	
3.99809	15.5138	12.1712	0.170208	-11.5158	
4.005	15.4309	12.1164	0.182119	-11.4259	
4.03267	15.4309	12.0272	0.205024	-11.3982	
4.14334	15.3271	12.0272	0.227317	-11.1838	
4.2056	15.2718	11.9587	0.255719	-11.0662	
4.39928	15.2787	11.9038	0.286564	-10.8794	
4.54454	15.1473	11.9107	0.30611	-10.6028	
4.75897	15.1473	11.8421	0.328403	-10.3883	
5.03565	15.0989	11.8352	0.289618	-10.0633	
5.27775	15.0574	11.7735	0.275265	-9.77966	
5.52677	14.9952	11.753	0.281983	-9.46841	
5.58902	14.9675	11.6981	0.415441	-9.37849	
5.87954	14.9053	11.6912	0.414525	-9.02573	
6.14239	14.8223	11.6707	0.421855	-8.6799	
6.43983	14.7946	11.6021	0.435903	-8.3548	
6.75802	14.6909	11.5747	0.445065	-7.93288	
6.94478	14.6563	11.6295	0.43407	-7.71154	
7.17304	14.5872	11.5952	0.515306	-7.41412	
7.44973	14.5526	11.513	0.515306	-7.10285	
7.69183	14.4973	11.5061	0.54157	-6.80543	
7.92009	14.4419	11.4924	0.519887	-6.52184	
8.09994	14.3244	11.465	0.498509	-6.22443	
8.10685	14.2483	11.465	0.504311	-6.14144	
8.16911	14.1722	11.4375	0.558061	-6.00312	
7.98926	14.0962	11.5061	0.576079	-6.10689	
7.92009	13.9993	11.465	0.514695	-6.07925	
7.85784	13.9164	11.3552	0.56142	-6.05852	
7.89242	13.8749	11.3415	0.562947	-5.98244	
7.97543	13.7642	11.369	0.54218	-5.78878	
8.02385	13.7227	11.2867	0.535156	-5.69887	
8.03077	13.6259	11.2867	0.556534	-5.59514	
7.98235	13.5775	11.3141	0.563558	-5.59515	
7.98235	13.5014	11.2798	0.536683	-5.51908	
7.96851	13.3769	11.2661	0.522635	-5.40843	
8.01001	13.3078	11.2593	0.533019	-5.29777	
8.09994	13.2594	11.2455	0.547372	-5.15944	
8.18986	13.1902	11.2387	0.543707	-5.00036	
8.21061	13.1626	11.2181	0.538516	-4.95195	
8.25211	13.0865	11.1838	0.53424	-4.83438	
8.20369	13.0173	11.225	0.525384	-4.81364	
8.17603	12.9758	11.1907	0.564474	-4.79982	
8.21061	12.9482	11.2113	0.56478	-4.73757	
8.14144	12.9343	11.1907	0.566307	-4.79291	
8.2452	12.8583	11.2318	0.520192	-4.61308	
8.16911	12.7684	11.1838	0.53027	-4.59927	
8.25211	12.7269	11.2593	0.568445	-4.47477	
8.26595	12.6646	11.2387	0.524162	-4.39869	
8.20369	12.6024	11.2318	0.523857	-4.39871	
8.22445	12.5471	11.3004	0.523246	-4.32263	
8.20369	12.5678	11.2593	0.549205	-4.36413	
8.27978	12.5263	11.2867	0.565696	-4.24655	
8.27978	12.4641	11.3278	0.58005	-4.18431	
8.2452	12.4364	11.2661	0.512862	-4.19123	
8.21753	12.388	11.3347	0.503701	-4.17049	
8.14144	12.3811	11.3484	0.510114	-4.23967	
8.16219	12.2981	11.369	0.581882	-4.13593	
8.26595	12.2774	11.417	0.523857	-4.01142	
8.16219	12.2981	11.4101	0.527827	-4.13593	
8.16219	12.1875	11.3758	0.54218	-4.02528	
8.20369	12.1045	11.4718	0.492401	-3.90079	
8.34895	12.0976	11.4375	0.481712	-3.74862	
8.33512	12.0976	11.4787	0.478658	-3.76245	
8.3282	12.0146	11.4924	0.511641	-3.68638	
8.45963	12.0077	11.5198	0.485071	-3.54804	
8.46654	11.9662	11.4581	0.514389	-3.49963	
8.49421	11.9247	11.4855	0.492096	-3.43047	
8.58414	11.8694	11.4992	0.471634	-3.28522	
8.68789	11.9316	11.4787	0.49973	-3.2437	
8.6118	11.8555	11.5404	0.469191	-3.24372	
8.65331	11.9178	11.5335	0.457586	-3.26446	
8.68098	11.8901	11.5747	0.474688	-3.20913	
8.71556	11.8348	11.5815	0.482628	-3.11922	
8.7294	11.9039	11.5404	0.46064	-3.17454	
8.72248	11.8486	11.5952	0.463999	-3.12613	
8.76398	11.9039	11.5952	0.437124	-3.13995	
8.73631	11.9454	11.5678	0.453005	-3.20912	
8.71556	11.897	11.657	0.482934	-3.18146	
8.80548	11.9523	11.6227	0.47988	-3.14686	
8.87465	12.0215	11.6295	0.475604	-3.14684	
8.88157	12.0699	11.6364	0.456059	-3.18834	
8.92307	12.1391	11.6501	0.450562	-3.21599	
9.00608	12.0907	11.6638	0.443232	-3.08457	
9.04067	12.2428	11.6295	0.438651	-3.20213	
9.04758	12.2082	11.6638	0.43346	-3.16064	
9.12367	12.2843	11.6501	0.432238	-3.16062	
9.08909	12.3465	11.6432	0.45667	-3.25744	
9.096	12.3673	11.705	0.443538	-3.27127	
9.17209	12.4641	11.6912	0.421549	-3.292	
9.15826	12.4641	11.7255	0.41025	-3.30584	
9.19284	12.5471	11.7392	0.43407	-3.35424	
9.17209	12.5955	11.7255	0.423687	-3.4234	
9.15134	12.6923	11.753	0.409944	-3.54097	
9.21359	12.6716	11.7667	0.447202	-3.45796	
9.31735	12.72	11.7324	0.369937	-3.40262	
9.28276	12.7615	11.7667	0.416357	-3.4787	
9.40727	12.7476	11.7804	0.405974	-3.34036	
9.37269	12.8237	11.7667	0.393758	-3.45101	
9.34502	12.7891	11.753	0.385207	-3.4441	
9.40036	12.8099	11.7804	0.354973	-3.40951	
9.36577	12.8168	11.8147	0.374213	-3.45101	
9.42111	12.8375	11.7735	0.397423	-3.41642	
9.41419	12.7891	11.801	0.392537	-3.37493	
9.46953	12.8306	11.7804	0.373602	-3.36109	
9.44186	12.8375	11.7872	0.339703	-3.39567	
9.4972	12.7615	11.7392	0.34856	-3.26426	
9.46953	12.7615	11.7118	0.345506	-3.29193	
9.48336	12.7684	11.6912	0.351003	-3.28501	
9.54562	12.7476	11.7118	0.340925	-3.20201	
9.55945	12.803	11.7324	0.361386	-3.2435	
9.41419	12.7822	11.6295	0.377572	-3.36802	
9.42802	12.8168	11.6707	0.340008	-3.38876	
9.49028	12.7891	11.6295	0.332068	-3.29884	
9.52486	12.8099	11.6227	0.32199	-3.285	
9.50411	12.796	11.6501	0.337871	-3.29193	
9.4972	12.8168	11.6021	0.32993	-3.31959	
9.52486	12.8237	11.6021	0.362302	-3.29884	
9.5387	12.8444	11.6432	0.31802	-3.30575	
9.52486	12.8514	11.6295	0.314355	-3.3265	
9.57328	12.879	11.6021	0.325655	-3.30574	
9.51795	12.8099	11.5952	0.315271	-3.29192	
9.64246	12.9067	11.657	0.342452	-3.26423	
9.67012	12.9689	11.6227	0.318325	-3.2988	
9.60787	12.9274	11.6021	0.298169	-3.31956	
9.63554	12.9205	11.5884	0.300918	-3.28498	
9.68396	12.9758	11.6158	0.292978	-3.29188	
9.67012	12.9828	11.6501	0.300918	-3.31263	
9.62862	13.0381	11.609	0.303972	-3.40946	
9.59404	13.0173	11.6501	0.297253	-3.4233	
9.59404	13.0657	11.6432	0.293283	-3.47171	
9.60787	13.1003	11.6364	0.287175	-3.49245	
9.66321	13.0934	11.6227	0.25633	-3.4302	
9.64937	13.1487	11.6912	0.256941	-3.49936	
9.73929	13.1487	11.6707	0.273432	-3.40944	
9.74621	13.1626	11.705	0.278624	-3.41635	
9.74621	13.1556	11.7255	0.269157	-3.40943	
9.79463	13.211	11.6775	0.264576	-3.41634	
9.76696	13.2248	11.753	0.254192	-3.45784	
9.74621	13.2317	11.705	0.226096	-3.4855	
9.79463	13.2594	11.7255	0.240144	-3.46475	
9.7808	13.3839	11.7667	0.22915	-3.60306	
9.78771	13.3424	11.7392	0.203497	-3.55465	
9.84997	13.2525	11.7461	0.214185	-3.40249	
9.80155	13.3424	11.7392	0.209605	-3.54082	
9.87072	13.37	11.8078	0.219377	-3.49931	
9.84305	13.3769	11.7392	0.218156	-3.53389	
9.81538	13.3493	11.7804	0.181203	-3.5339	
9.87764	13.3769	11.7804	0.159214	-3.49931	
9.87072	13.4046	11.849	0.180897	-3.53388	
9.87072	13.4392	11.8284	0.185478	-3.56846	
9.91914	13.4254	11.8695	0.18334	-3.50621	
9.89147	13.4392	11.8764	0.167765	-3.54771	
9.90531	13.4323	11.8695	0.14822	-3.52696	
9.94681	13.3769	11.8901	0.136615	-3.43013	
9.93297	13.3216	11.9381	0.136004	-3.38864	
9.93989	13.3631	11.9381	0.138447	-3.42322	
10.016	13.4115	11.9724	0.138447	-3.39554	
10.016	13.37	11.945	0.132339	-3.35405	
10.0713	13.3147	11.9724	0.108824	-3.24339	
10.0436	13.3424	11.9587	0.0993566	-3.29872	
10.0852	13.2594	11.9655	0.0999674	-3.17423	
10.1336	13.2663	12.0135	0.0966081	-3.13272	
8.88157	13.2594	12.0341	0.0184268	-4.37781	
8.2452	13.294	12.0615	-0.00753188	-5.04876	
7.59499	13.2594	12.0615	-0.0386822	-5.66439	
7.78175	13.2317	12.0821	-0.0689164	-5.44997	
7.51198	13.2248	12.0821	-0.0954859	-5.71282	
6.7511	13.2386	12.089	-0.142211	-6.48753	
6.88252	13.211	12.1027	-0.21795	-6.32845	
6.72343	13.1556	12.1507	-0.280861	-6.43221	
7.14537	13.2248	12.1575	-0.293688	-6.07943	
7.00012	13.1695	12.1712	-0.244519	-6.16936	
6.92403	13.1902	12.1781	-0.192296	-6.2662	
6.91019	13.1695	12.1918	-0.233219	-6.25928	
6.95861	13.1971	12.1849	-0.260094	-6.23853	
7.04854	13.1142	12.2398	-0.273837	-6.06562	
6.90328	13.1211	12.2672	-0.255819	-6.21779	
6.94478	13.1211	12.2809	-0.244519	-6.17629	
6.9517	13.0934	12.2398	-0.26437	-6.14171	
6.93786	13.0934	12.2672	-0.224057	-6.15554	
6.9932	13.045	12.3015	-0.22253	-6.0518	
6.91711	13.045	12.2947	-0.255819	-6.12789	
6.84794	13.0588	12.3221	-0.213674	-6.21089	
6.7511	13.0243	12.3632	-0.238411	-6.27315	
6.81335	13.0104	12.3358	-0.278723	-6.19707	
6.75802	13.0312	12.3427	-0.240549	-6.27315	
6.77877	12.9966	12.3427	-0.238106	-6.21782	
6.74418	12.9966	12.3495	-0.231387	-6.25241	
6.73035	12.9482	12.3221	-0.213979	-6.21783	
6.67501	12.9413	12.3289	-0.249405	-6.26625	
6.74418	12.962	12.3564	-0.250322	-6.21783	
6.82027	12.9551	12.3358	-0.235052	-6.13482	
6.79952	12.9413	12.3084	-0.232914	-6.14175	
6.87561	12.9413	12.3358	-0.219477	-6.06566	
6.8341	12.9136	12.3152	-0.251238	-6.0795	
6.82719	12.9205	12.3427	-0.230165	-6.09333	
6.89636	12.8929	12.3289	-0.230471	-5.9965	
6.97936	12.9274	12.3084	-0.25704	-5.94807	
6.91019	12.9413	12.3152	-0.231082	-6.03107	
6.94478	12.9274	12.2878	-0.25307	-5.98265	
6.88252	12.9343	12.2535	-0.275669	-6.05182	
6.93094	12.9136	12.2535	-0.232914	-5.98266	
6.88944	12.9758	12.2398	-0.194129	-6.0864	
6.91019	13.0035	12.2535	-0.232303	-6.09331	
6.88252	13.0519	12.2604	-0.250627	-6.16939	
6.8341	13.128	12.2398	-0.247268	-6.29388	
6.86177	13.1626	12.1712	-0.272615	-6.30079	
6.88252	13.1556	12.2329	-0.233525	-6.27312	
6.90328	13.2317	12.1644	-0.184967	-6.32844	
6.81335	13.2525	12.1987	-0.191075	-6.43911	
6.77877	13.3354	12.1849	-0.218866	-6.55668	
6.7926	13.3285	12.0958	-0.254902	-6.53593	
6.72343	13.3769	12.137	-0.253375	-6.65351	
6.7511	13.4254	12.137	-0.245435	-6.67425	
6.77185	13.536	12.089	-0.216728	-6.76415	
6.77877	13.5222	12.0341	-0.219477	-6.7434	
6.74418	13.6259	12.0684	-0.201153	-6.88172	
6.7511	13.6536	12.0135	-0.212147	-6.90246	
6.76493	13.7227	11.9518	-0.250627	-6.95779	
6.76493	13.7366	11.9998	-0.253375	-6.97162	
6.73726	13.785	11.945	-0.2491	-7.04769	
6.7511	13.8195	11.9724	-0.211536	-7.06844	
6.76493	13.8749	11.8901	-0.20665	-7.10993	
6.82027	13.8749	11.9724	-0.211536	-7.05459	
6.78568	13.944	11.9381	-0.229249	-7.15833	
6.75802	13.944	11.9244	-0.253986	-7.186	
6.72343	13.9302	11.849	-0.218255	-7.20675	
6.68193	13.9302	11.8558	-0.197793	-7.24826	
6.70268	13.9371	11.801	-0.223141	-7.23442	
6.68193	13.9578	11.7392	-0.21856	-7.27592	
6.71651	13.9855	11.7872	-0.27231	-7.269	
6.68884	13.9648	11.7804	-0.274142	-7.27592	
6.59892	13.9509	11.6707	-0.218866	-7.35201	
6.58509	13.9164	11.6981	-0.169392	-7.33127	
6.61276	13.9302	11.6364	-0.219782	-7.31743	
6.60584	13.9578	11.5747	-0.248795	-7.35201	
6.60584	13.9164	11.5267	-0.250322	-7.31051	
6.57125	13.9371	11.4992	-0.206039	-7.36585	
6.54359	13.9855	11.4307	-0.197793	-7.44192	
6.60584	13.9924	11.3827	-0.230165	-7.38659	
6.52283	13.9648	11.321	-0.198099	-7.44193	
6.52975	14.0132	11.3141	-0.184051	-7.48342	
6.52283	14.0201	11.2387	-0.217339	-7.49725	
6.509	14.0339	11.2181	-0.224057	-7.52492	
6.509	14.0201	11.2044	-0.19535	-7.51109	
6.45366	14.0408	11.177	-0.189242	-7.58717	
6.46058	14.0201	11.1564	-0.179775	-7.55951	
6.4675	14.0616	11.1427	-0.212758	-7.59408	
6.47441	14.0892	11.081	-0.206955	-7.61483	
6.41908	14.0823	11.0604	-0.207871	-7.66325	
6.39833	14.0823	11.033	-0.219782	-7.684	
6.39833	14.0892	11.0535	-0.177943	-7.69092	
6.43983	14.11	10.985	-0.183134	-7.67016	
6.43291	14.1169	10.9781	-0.206039	-7.68399	
6.39833	14.0962	10.937	-0.202985	-7.69783	
6.41908	14.1446	10.9781	-0.202069	-7.72549	
6.39833	14.1791	10.9438	-0.168475	-7.78082	
6.39141	14.1653	10.8478	-0.199931	-7.7739	
6.34991	14.1722	10.9233	-0.180691	-7.82232	
6.40524	14.2068	10.8615	-0.168781	-7.80156	
6.43291	14.2137	10.8478	-0.199931	-7.78081	
6.31532	14.2483	10.8547	-0.206345	-7.93298	
6.35682	14.2276	10.8547	-0.192907	-7.87073	
6.40524	14.2898	10.7724	-0.194129	-7.88455	
6.3084	14.2621	10.7998	-0.170308	-7.95373	
6.38449	14.2967	10.8273	-0.150762	-7.91222	
6.41216	14.276	10.8273	-0.147709	-7.8638	
6.44675	14.3451	10.7655	-0.188632	-7.89837	
6.37066	14.2967	10.745	-0.193823	-7.92605	
6.37066	14.3728	10.7313	-0.173667	-8.00212	
6.34299	14.3382	10.745	-0.177027	-7.99521	
6.33607	14.3589	10.7038	-0.189548	-8.02288	
6.32915	14.2967	10.7107	-0.193212	-7.96755	
6.31532	14.3244	10.7244	-0.193212	-8.00905	
6.34299	14.3313	10.6627	-0.159314	-7.9883	
6.31532	14.3036	10.6901	-0.15687	-7.9883	
6.32915	14.2898	10.7107	-0.150152	-7.96064	
6.33607	14.2967	10.7038	-0.157176	-7.96064	
6.3084	14.2621	10.6421	-0.166948	-7.95373	
6.28765	14.276	10.7038	-0.165421	-7.98831	
6.31532	14.2137	10.7175	-0.139157	-7.8984	
6.29457	14.2552	10.7381	-0.153816	-7.96065	
6.32915	14.2137	10.7518	-0.150152	-7.88457	
6.31532	14.1307	10.6833	-0.133966	-7.81541	
6.32915	14.1653	10.7587	-0.165116	-7.83616	
6.28765	14.11	10.7313	-0.155954	-7.82234	
6.3084	14.0547	10.7724	-0.134882	-7.74626	
6.29457	14.0339	10.7861	-0.157176	-7.73935	
6.2669	13.9509	10.7861	-0.136103	-7.68403	
6.30149	13.9786	10.7724	-0.158703	-7.67711	
6.3084	13.9717	10.8547	-0.170002	-7.66327	
6.2254	13.9233	10.8067	-0.139157	-7.69787	
6.2669	13.9164	10.841	-0.150762	-7.64945	
6.27382	13.9094	10.889	-0.140684	-7.63562	
6.29457	13.9094	10.841	-0.138852	-7.61487	
6.28765	13.8334	10.9575	-0.140074	-7.54572	
6.20465	13.7919	10.8958	-0.14893	-7.58723	
6.20465	13.8057	10.9301	-0.140684	-7.60106	
6.2254	13.8126	10.9027	-0.130912	-7.58722	
6.17698	13.7435	10.9164	-0.116558	-7.56649	
6.21848	13.7642	10.9575	-0.139157	-7.54573	
6.16314	13.7366	10.9987	-0.14099	-7.57341	
6.19773	13.7573	10.9713	-0.141906	-7.55957	
6.20465	13.7435	11.0193	-0.148014	-7.53882	
6.10089	13.702	11.0604	-0.113199	-7.60108	
6.17006	13.6951	11.0741	-0.138547	-7.525	
6.19081	13.6328	11.129	-0.139157	-7.442	
6.19081	13.6052	11.0947	-0.149541	-7.41434	
6.1839	13.6121	11.225	-0.135187	-7.42818	
6.14931	13.5498	11.177	-0.132133	-7.40052	
6.15623	13.5982	11.1975	-0.114726	-7.44201	
6.14931	13.5982	11.3484	-0.124498	-7.44893	
6.1839	13.6121	11.321	-0.141601	-7.42818	
6.23232	13.5775	11.3278	-0.13366	-7.34518	
6.19081	13.4945	11.3415	-0.138547	-7.30369	
6.19773	13.536	11.3827	-0.112893	-7.33827	
6.17006	13.5291	11.3758	-0.127552	-7.35902	
6.19773	13.5291	11.4307	-0.146182	-7.33135	
6.21156	13.536	11.4581	-0.140379	-7.32444	
6.2669	13.5083	11.4718	-0.150457	-7.24144	
6.23923	13.4599	11.5335	-0.14099	-7.2207	
6.30149	13.4807	11.5061	-0.131217	-7.17919	
6.28765	13.4876	11.5404	-0.135798	-7.19994	
6.37066	13.5014	11.561	-0.140379	-7.13076	
6.38449	13.4738	11.5815	-0.155038	-7.08927	
6.38449	13.5083	11.5747	-0.143128	-7.12385	
6.39833	13.5429	11.6021	-0.138241	-7.14459	
6.43291	13.536	11.6021	-0.148625	-7.10309	
6.41908	13.5637	11.609	-0.149846	-7.14458	
6.41216	13.5775	11.609	-0.141295	-7.16533	
6.37757	13.6121	11.6432	-0.13366	-7.2345	
6.39833	13.6328	11.6432	-0.134271	-7.23449	
6.42599	13.6674	11.6638	-0.149541	-7.2414	
6.41908	13.6951	11.7187	-0.149541	-7.27598	
6.42599	13.785	11.7118	-0.152289	-7.35896	
6.39833	13.8195	11.7118	-0.152595	-7.42121	
6.34991	13.8265	11.7392	-0.117169	-7.47655	
6.37066	13.9578	11.6981	-0.137325	-7.58719	
6.37066	13.9924	11.753	-0.130301	-7.62177	
6.35682	14.027	11.753	-0.141601	-7.67018	
6.37066	14.0685	11.7872	-0.159619	-7.69784	
6.38449	14.1238	11.7872	-0.153206	-7.73933	
6.32224	14.1653	11.7735	-0.141295	-7.84308	
6.32915	14.2345	11.8078	-0.111977	-7.90531	
6.28765	14.276	11.8147	-0.126025	-7.98831	
6.34991	14.3659	11.8215	-0.150152	-8.01596	
6.33607	14.3935	11.8078	-0.15687	-8.05745	
6.3084	14.4696	11.8421	-0.148625	-8.16119	
6.30149	14.4765	11.8558	-0.145571	-8.17503	
6.29457	14.5318	11.8627	-0.141601	-8.23727	
6.3084	14.4973	11.8695	-0.157481	-8.18885	
6.32224	14.5733	11.8695	-0.147709	-8.25109	
6.30149	14.5802	11.8558	-0.148014	-8.27876	
6.24615	14.5664	11.9312	-0.121139	-8.32026	
6.2254	14.6771	11.9518	-0.126942	-8.45166	
6.25998	14.6701	11.9861	-0.117169	-8.41016	
6.2254	14.6771	11.8901	-0.128163	-8.45166	
6.19081	14.6771	11.9244	-0.134882	-8.48625	
6.25307	14.684	11.9244	-0.139768	-8.43091	
6.17698	14.7047	11.8901	-0.126331	-8.52775	
6.17006	14.6425	11.8832	-0.131523	-8.47242	
6.14931	14.6287	11.8078	-0.134882	-8.47934	
6.19081	14.6978	11.8284	-0.146487	-8.507	
6.2254	14.6771	11.7667	-0.145876	-8.45166	
6.17006	14.684	11.7392	-0.128163	-8.51392	
6.12856	14.6909	11.7461	-0.121444	-8.56233	
6.1839	14.7324	11.7461	-0.12175	-8.54849	
6.10781	14.7047	11.7324	-0.119307	-8.59692	
6.16314	14.767	11.6981	-0.126942	-8.60382	
6.16314	14.7462	11.7255	-0.128469	-8.58307	
6.14931	14.8015	11.6775	-0.128163	-8.65223	
6.12856	14.767	11.6432	-0.120528	-8.63841	
6.12856	14.7946	11.6227	-0.123277	-8.66607	
6.09397	14.843	11.6295	-0.126025	-8.74906	
6.09397	14.8569	11.6158	-0.136103	-8.76289	
6.10089	14.8707	11.5952	-0.124804	-8.76981	
6.10781	14.9675	11.609	-0.112588	-8.85971	
6.03864	14.9329	11.561	-0.121444	-8.8943	
6.12164	14.9537	11.5815	-0.123888	-8.83204	
6.04555	14.8914	11.5472	-0.120528	-8.84589	
6.04555	14.9813	11.6021	-0.107091	-8.93579	
6.08014	15.009	11.5541	-0.111061	-8.92887	
6.03172	15.0021	11.561	-0.112893	-8.97037	
6.04555	15.0228	11.561	-0.119918	-8.97729	
6.03172	15.0574	11.5541	-0.119001	-9.0257	
6.0248	15.0712	11.5267	-0.109839	-9.04645	
6.01788	15.0782	11.5267	-0.108618	-9.06028	
5.94871	15.1058	11.5198	-0.0939589	-9.15711	
6.00405	15.1127	11.561	-0.111977	-9.10869	
6.03172	15.1473	11.4992	-0.099456	-9.1156	
6.00405	15.1404	11.4992	-0.105869	-9.13635	
5.99713	15.175	11.513	-0.11381	-9.17785	
5.96946	15.1957	11.4992	-0.10251	-9.22626	
6.0248	15.2165	11.4718	-0.111672	-9.19167	
6.03864	15.1542	11.4444	-0.107702	-9.1156	
6.01097	15.2096	11.5061	-0.110145	-9.19859	
6.03172	15.2165	11.4992	-0.105259	-9.18475	
5.9833	15.2026	11.465	-0.106785	-9.21934	
6.01788	15.175	11.4718	-0.105564	-9.1571	
6.03172	15.1819	11.4444	-0.101288	-9.15018	
6.0663	15.2303	11.417	-0.108923	-9.164	
6.03864	15.2441	11.4718	-0.103121	-9.2055	
6.0248	15.2303	11.4512	-0.099456	-9.2055	
6.0663	15.1888	11.4375	-0.0976236	-9.12251	
6.03864	15.1888	11.4787	-0.0951805	-9.15018	
6.01788	15.175	11.5267	-0.101594	-9.1571	
6.00405	15.2165	11.5335	-0.10251	-9.21242	
6.07322	15.1473	11.4992	-0.0942643	-9.0741	
6.00405	15.1404	11.5404	-0.0844916	-9.13635	
6.05247	15.092	11.561	-0.096402	-9.03952	
6.03172	15.1197	11.5952	-0.0951805	-9.08794	
6.03864	15.0505	11.609	-0.10251	-9.01186	
6.00405	14.9883	11.609	-0.0930427	-8.98421	
5.99713	15.0021	11.5884	-0.084797	-9.00496	
5.99022	14.9191	11.6295	-0.0796053	-8.92889	
5.99713	14.9191	11.6501	-0.0881564	-8.92197	
5.95563	14.85	11.657	-0.0909049	-8.89432	
5.93488	14.85	11.6844	-0.0921265	-8.91507	
6.01788	14.8154	11.6912	-0.0857132	-8.79749	
5.9833	14.8154	11.6844	-0.084797	-8.83207	
5.9833	14.767	11.705	-0.0835754	-8.78367	
5.96255	14.7531	11.7255	-0.0902941	-8.79059	
5.96255	14.7116	11.7392	-0.086324	-8.74909	
5.9418	14.7047	11.7187	-0.0835754	-8.76293	
5.93488	14.7047	11.7255	-0.0802161	-8.76985	
5.96946	14.7186	11.7324	-0.0820484	-8.74909	
5.94871	14.6909	11.8421	-0.0820484	-8.74218	
5.94871	14.6771	11.8284	-0.0796053	-8.72835	
5.92104	14.7116	11.801	-0.0789945	-8.7906	
5.91413	14.6771	11.849	-0.0765513	-8.76293	
5.90721	14.6425	11.9038	-0.0768567	-8.73527	
5.9833	14.6148	11.9244	-0.0829646	-8.63152	
5.94871	14.6425	11.9107	-0.0789945	-8.69377	
5.96946	14.5733	11.9312	-0.0789945	-8.60386	
5.96946	14.5388	11.9792	-0.0756351	-8.56929	
5.96255	14.5595	12.0067	-0.0771621	-8.59695	
5.97638	14.5595	12.0478	-0.0759405	-8.58312	
5.96946	14.5388	12.1027	-0.0786891	-8.56929	
5.96255	14.5388	12.0684	-0.0765513	-8.5762	
5.95563	14.5733	12.137	-0.0744135	-8.6177	
5.92104	14.5388	12.1781	-0.073192	-8.61771	
5.99022	14.5388	12.2192	-0.0719704	-8.54854	
5.94871	14.5111	12.2672	-0.0725812	-8.56238	
5.99022	14.5111	12.2947	-0.0738028	-8.52087	
6.01097	14.518	12.2947	-0.0722758	-8.50704	
5.9833	14.5318	12.3358	-0.0777729	-8.54854	
5.97638	14.5249	12.3769	-0.0808269	-8.54854	
6.08706	14.4696	12.3907	-0.0777729	-8.38254	
6.11472	14.5111	12.4387	-0.0820484	-8.39637	
6.12164	14.4834	12.4387	-0.0838808	-8.36179	
6.10089	14.4903	12.4318	-0.0835754	-8.38945	
6.12856	14.4834	12.4592	-0.0902941	-8.35487	
6.17698	14.5388	12.4798	-0.0976236	-8.36177	
6.20465	14.5388	12.5004	-0.0967074	-8.3341	
6.21848	14.5457	12.5484	-0.0927373	-8.32719	
6.25307	14.5111	12.5072	-0.0893779	-8.25802	
6.3084	14.5457	12.5827	-0.0854078	-8.23726	
6.25998	14.5595	12.5758	-0.0918211	-8.29951	
6.28765	14.5526	12.5415	-0.0829646	-8.26493	
6.28073	14.6494	12.6169	-0.086324	-8.36867	
6.28073	14.7047	12.6787	-0.0927373	-8.42399	
6.21848	14.7324	12.6444	-0.0930427	-8.51391	
6.21848	14.767	12.6169	-0.0921265	-8.54848	
6.2254	14.8015	12.6512	-0.0921265	-8.57614	
6.19081	14.8292	12.7129	-0.096402	-8.63839	
6.19081	14.9053	12.6855	-0.0930427	-8.71446	
6.17698	14.9952	12.6855	-0.0890725	-8.8182	
6.14931	15.0298	12.7198	-0.0881564	-8.88044	
6.12164	15.0436	12.7472	-0.0860186	-8.92194	
6.21848	15.0851	12.7335	-0.0893779	-8.8666	
6.19081	15.1404	12.7198	-0.0997614	-8.94959	
6.12856	15.1888	12.7129	-0.10251	-9.06025	
6.12164	15.2441	12.7335	-0.0936535	-9.12249	
6.09397	15.2718	12.7404	-0.0851024	-9.17782	
6.10781	15.2995	12.7609	-0.086324	-9.19165	
6.0663	15.3548	12.7129	-0.0991506	-9.28848	
6.11472	15.341	12.7472	-0.0936535	-9.22623	
6.10089	15.4378	12.7747	-0.0899887	-9.33688	
6.07322	15.4585	12.8021	-0.0799107	-9.3853	
6.00405	15.4447	12.8021	-0.0844916	-9.44064	
5.99713	15.4793	12.8707	-0.0869348	-9.48213	
5.95563	15.4862	12.7678	-0.0808269	-9.53055	
5.92104	15.5277	12.8295	-0.0670841	-9.60663	
5.92104	15.4654	12.8089	-0.0747189	-9.54439	
5.84496	15.5	12.8158	-0.0750243	-9.65505	
5.86571	15.5	12.7952	-0.086324	-9.6343	
5.84496	15.4654	12.7678	-0.0792999	-9.62048	
5.87954	15.4862	12.8021	-0.0713596	-9.60664	
5.82421	15.4723	12.7198	-0.0741082	-9.64814	
5.85879	15.4447	12.6787	-0.0734974	-9.5859	
5.82421	15.3894	12.6375	-0.0728866	-9.56516	
5.83804	15.417	12.6581	-0.073192	-9.57898	
5.86571	15.4309	12.5827	-0.0725812	-9.56515	
5.84496	15.3963	12.5484	-0.0710542	-9.55132	
5.81037	15.4862	12.5278	-0.0664733	-9.67581	
5.90721	15.4239	12.4935	-0.0594492	-9.51673	
5.84496	15.4447	12.4661	-0.0588384	-9.59973	
5.85187	15.417	12.4318	-0.0597546	-9.56515	
5.83804	15.4723	12.3975	-0.0591438	-9.63431	
5.82421	15.4931	12.3769	-0.0567006	-9.66889	
5.82421	15.5692	12.3564	-0.0542574	-9.74496	
5.81729	15.5138	12.3564	-0.0524251	-9.69655	
5.82421	15.5346	12.2947	-0.0502873	-9.71038	
5.82421	15.5484	12.3427	-0.0515089	-9.72421	
5.78962	15.5208	12.2741	-0.0521197	-9.73114	
5.7827	15.5553	12.2878	-0.0508981	-9.77263	
5.82421	15.6107	12.2878	-0.0472333	-9.78645	
5.78962	15.583	12.2329	-0.0487603	-9.79338	
5.78962	15.6176	12.2055	-0.0475387	-9.82795	
5.81037	15.6314	12.2398	-0.0460117	-9.82103	
5.76887	15.6245	12.2261	-0.045401	-9.85562	
5.81729	15.6314	12.1918	-0.0472333	-9.81412	
5.79654	15.6798	12.1712	-0.0420416	-9.88328	
5.79654	15.6522	12.1644	-0.0420416	-9.85562	
5.7827	15.7006	12.1575	-0.0395984	-9.91786	
5.83112	15.6729	12.1644	-0.039293	-9.84178	
5.83112	15.7628	12.1575	-0.0377661	-9.93168	
5.81037	15.7282	12.1232	-0.0380715	-9.91785	
5.7827	15.7421	12.1027	-0.0389876	-9.95935	
5.81729	15.7697	12.0958	-0.0377661	-9.95243	
5.85879	15.7905	12.0821	-0.0386822	-9.93167	
5.81037	15.7213	12.0341	-0.0362391	-9.91094	
5.85187	15.8112	12.0752	-0.0380715	-9.95934	
5.88646	15.7628	12.1164	-0.0389876	-9.87634	
5.83804	15.7559	12.0615	-0.0386822	-9.91785	
5.88646	15.7697	12.0752	-0.0405146	-9.88326	
5.89338	15.7559	12.0547	-0.04082	-9.86251	
5.90029	15.749	12.0615	-0.0414308	-9.84868	
5.93488	15.7213	12.0341	-0.042347	-9.78643	
5.93488	15.749	12.0341	-0.04082	-9.81409	
5.95563	15.7282	12.0958	-0.0380715	-9.77259	
5.90721	15.6867	12.0752	-0.0359337	-9.77952	
5.87262	15.7006	12.0752	-0.0356283	-9.82794	
5.88646	15.6867	12.0478	-0.0319635	-9.80027	
5.90721	15.6798	12.0752	-0.0331851	-9.7726	
5.88646	15.6452	12.1164	-0.0328797	-9.75878	
5.90029	15.6452	12.0821	-0.0325743	-9.74494	
5.90029	15.5899	12.1507	-0.0325743	-9.68962	
5.87262	15.6037	12.1575	-0.0331851	-9.73112	
5.88646	15.5277	12.1507	-0.0341013	-9.64121	
5.90721	15.4793	12.1575	-0.0365445	-9.57205	
5.83112	15.4931	12.1712	-0.0353229	-9.66197	
5.87954	15.4378	12.1987	-0.0353229	-9.55823	
5.88646	15.417	12.1644	-0.0371553	-9.53056	
5.90721	15.3686	12.1987	-0.0395984	-9.4614	
5.91413	15.3617	12.2124	-0.0386822	-9.44757	
5.92104	15.341	12.2124	-0.0377661	-9.41991	
5.92104	15.2856	12.1849	-0.0389876	-9.36458	
5.90721	15.2856	12.2192	-0.039293	-9.37842	
5.92796	15.2372	12.1987	-0.0389876	-9.30926	
5.92104	15.2234	12.2672	-0.0362391	-9.30234	
5.90029	15.2096	12.2878	-0.0389876	-9.30926	
5.9418	15.2026	12.2809	-0.0386822	-9.26085	
5.93488	15.1957	12.3221	-0.0377661	-9.26085	
5.93488	15.1542	12.3152	-0.0359337	-9.21935	
5.89338	15.1888	12.3289	-0.0334905	-9.29544	
5.91413	15.1957	12.3495	-0.0344067	-9.2816	
5.91413	15.1473	12.4044	-0.0356283	-9.23319	
5.89338	15.1058	12.4181	-0.0337959	-9.21245	
5.88646	15.1197	12.4249	-0.0344067	-9.2332	
5.87954	15.0851	12.4798	-0.0331851	-9.20554	
5.89338	15.092	12.4592	-0.0341013	-9.19862	
5.89338	15.0436	12.4935	-0.0316581	-9.15021	
5.85879	15.0851	12.5827	-0.0328797	-9.22629	
5.85187	15.0782	12.6169	-0.0322689	-9.22629	
5.81729	15.092	12.5964	-0.0341013	-9.27471	
5.85187	15.0505	12.6581	-0.0295204	-9.19863	
5.84496	15.0367	12.7267	-0.0322689	-9.19171	
5.83804	15.0574	12.7267	-0.0337959	-9.21938	
5.87262	15.0436	12.6992	-0.0350175	-9.17096	
5.82421	15.1058	12.8089	-0.0377661	-9.28162	
5.87954	15.0712	12.8227	-0.0386822	-9.19171	
5.94871	15.0298	12.8638	-0.0420416	-9.08104	
5.89338	15.0436	12.8775	-0.0457063	-9.15021	
5.97638	15.0505	12.9324	-0.0481495	-9.07412	
6.04555	15.0021	12.9324	-0.0505927	-8.95654	
6.01788	15.0021	12.9324	-0.0524251	-8.98421	
6.07322	14.9952	13.0421	-0.053952	-8.92196	
6.12856	14.9744	12.9735	-0.057006	-8.84587	
6.15623	15.0021	13.0147	-0.0576168	-8.84587	
6.14931	14.9952	13.0078	-0.055479	-8.84587	
6.16314	15.0298	13.0421	-0.0557844	-8.86661	
6.19081	15.009	13.0695	-0.057006	-8.8182	
6.19773	15.0505	13.0764	-0.0563952	-8.85277	
6.20465	15.0712	13.0695	-0.0545628	-8.8666	
6.21156	15.0574	13.0764	-0.0563952	-8.84585	
6.15623	15.0712	13.1175	-0.0594492	-8.91502	
6.17698	15.1335	13.1381	-0.058533	-8.95651	
6.14239	15.1681	13.1655	-0.0597546	-9.02567	
6.10781	15.2234	13.1381	-0.0597546	-9.11558	
6.21156	15.2511	13.1244	-0.0661679	-9.03949	
6.10089	15.2787	13.1518	-0.0667787	-9.17782	
6.14239	15.3064	13.1449	-0.068611	-9.16398	
6.17698	15.4032	13.1792	-0.0667787	-9.22621	
6.12164	15.417	13.2135	-0.073192	-9.29538	
6.15623	15.5069	13.2409	-0.0741082	-9.3507	
6.12856	15.5138	13.2821	-0.071665	-9.38528	
6.08706	15.5899	13.2821	-0.0722758	-9.50286	
6.12856	15.6383	13.2478	-0.0667787	-9.50976	
6.17006	15.6522	13.2341	-0.0680002	-9.48209	
6.13548	15.7282	13.2889	-0.0698326	-9.59275	
6.12164	15.7905	13.2958	-0.0719704	-9.66882	
6.08014	15.7905	13.3232	-0.068611	-9.71032	
6.15623	15.8181	13.3301	-0.0670841	-9.6619	
6.07322	15.908	13.2958	-0.0692218	-9.83481	
6.08014	15.8734	13.3164	-0.0747189	-9.79331	
6.05939	15.9149	13.3232	-0.0759405	-9.85555	
6.01097	15.9426	13.3438	-0.0713596	-9.93164	
6.04555	15.9564	13.3575	-0.0637247	-9.91088	
6.01097	15.9426	13.3781	-0.0591438	-9.93164	
5.95563	15.9841	13.3644	-0.0582276	-10.0285	
5.95563	15.9564	13.3506	-0.0582276	-10.0008	
5.84496	15.9357	13.3506	-0.0542574	-10.0907	
5.84496	15.9772	13.3849	-0.053952	-10.1322	
5.83112	15.9426	13.2889	-0.0499819	-10.1115	
5.78962	15.9564	13.2546	-0.0527304	-10.1668	
5.78962	15.9288	13.2546	-0.0521197	-10.1392	
5.76195	15.908	13.2546	-0.0515089	-10.1461	
5.76887	15.9149	13.1929	-0.0567006	-10.1461	
5.81729	15.908	13.1244	-0.0551736	-10.0907	
5.75503	15.9219	13.1449	-0.0536466	-10.1668	
5.79654	15.9149	13.0764	-0.0530358	-10.1184	
5.77579	15.8942	13.0558	-0.0487603	-10.1184	
5.74812	15.9219	13.0832	-0.0444848	-10.1737	
5.72045	15.9011	13.0147	-0.039293	-10.1807	
5.76887	15.908	12.9667	-0.0402092	-10.1392	
5.6997	15.9634	12.9392	-0.04082	-10.2637	
5.73428	15.991	12.9118	-0.0371553	-10.2567	
5.71353	15.9772	12.8775	-0.0319635	-10.2637	
5.68586	16.0048	12.8432	-0.0286042	-10.319	
5.67203	15.9772	12.8227	-0.0255502	-10.3052	
5.65819	15.9703	12.8501	-0.0273826	-10.3121	
5.6997	16.0394	12.8501	-0.0252448	-10.3397	
5.61669	16.0118	12.8227	-0.0234125	-10.3951	
5.66511	16.0187	12.8021	-0.0218855	-10.3536	
5.65128	16.0394	12.8227	-0.0234125	-10.3881	
5.67895	16.074	12.7541	-0.0218855	-10.3951	
5.67895	16.0602	12.6855	-0.0212747	-10.3812	
5.66511	16.1017	12.7198	-0.0209693	-10.4366	
5.66511	16.0809	12.7335	-0.0182207	-10.4158	
5.72045	16.1155	12.6238	-0.0182207	-10.395	
5.7412	16.1293	12.7129	-0.0169991	-10.3881	
5.71353	16.1224	12.6718	-0.0169991	-10.4089	
5.72045	16.157	12.6101	-0.0163884	-10.4365	
5.73428	16.1639	12.5964	-0.0154722	-10.4296	
5.79654	16.1777	12.6169	-0.0142506	-10.3812	
5.70661	16.1777	12.5758	-0.0148614	-10.4711	
5.78962	16.1916	12.5552	-0.014556	-10.4019	
5.75503	16.1916	12.5415	-0.0151668	-10.4365	
5.78962	16.24	12.5141	-0.0136398	-10.4504	
5.80345	16.2331	12.5209	-0.0142506	-10.4296	
5.81729	16.1846	12.5552	-0.0148614	-10.3674	
5.82421	16.24	12.5347	-0.0142506	-10.4158	
5.85879	16.2054	12.5552	-0.014556	-10.3466	
5.86571	16.2261	12.5278	-0.0176099	-10.3604	
5.89338	16.1916	12.5827	-0.0185261	-10.2982	
5.89338	16.1985	12.5347	-0.0185261	-10.3051	
5.84496	16.1708	12.5141	-0.0182207	-10.3259	
5.89338	16.157	12.5209	-0.0169991	-10.2636	
5.91413	16.1985	12.5552	-0.016083	-10.2844	
5.83112	16.1501	12.5689	-0.0148614	-10.3189	
5.87262	16.1432	12.5484	-0.0142506	-10.2705	
5.87954	16.1155	12.5415	-0.0102804	-10.236	
5.85187	16.1362	12.5964	-0.0124182	-10.2844	
5.83804	16.0878	12.5689	-0.0108912	-10.2498	
5.88646	16.0256	12.6169	-0.0127236	-10.1391	
5.90721	16.0048	12.5758	-0.0105858	-10.0976	
5.87262	15.9979	12.5964	-0.0136398	-10.1253	
5.90721	15.9703	12.6032	-0.0127236	-10.0631	
5.88646	15.9011	12.5964	-0.0157776	-10.0147	
5.85879	15.825	12.5964	-0.0176099	-9.96625	
5.86571	15.8458	12.6238	-0.0163884	-9.98008	
5.89338	15.8389	12.6169	-0.0182207	-9.94549	
5.89338	15.749	12.6581	-0.0185261	-9.85559	
5.95563	15.7628	12.6375	-0.0185261	-9.80717	
5.90721	15.7006	12.6718	-0.0188315	-9.79335	
5.9418	15.666	12.6444	-0.0166938	-9.72419	
5.92104	15.6591	12.6444	-0.014556	-9.73802	
5.91413	15.6383	12.6649	-0.0154722	-9.72419	
5.84496	15.6314	12.6992	-0.0154722	-9.78645	
5.87262	15.6245	12.7061	-0.0136398	-9.75186	
5.91413	15.6314	12.6924	-0.0124182	-9.71728	
5.87954	15.5415	12.7198	-0.0136398	-9.66196	
5.81729	15.5899	12.7472	-0.0111966	-9.77262	
5.81729	15.5692	12.7335	-0.0121128	-9.75188	
5.78962	15.5208	12.8364	-0.0105858	-9.73114	
5.76887	15.5553	12.8364	-0.013029	-9.78647	
5.74812	15.4862	12.8707	-0.011502	-9.73806	
5.75503	15.4447	12.8775	-0.0121128	-9.68965	
5.7412	15.4585	12.8432	-0.0118074	-9.71732	
5.70661	15.4447	12.8981	-0.0127236	-9.73807	
5.7412	15.4239	12.9461	-0.0127236	-9.68274	
5.70661	15.4516	12.9598	-0.0142506	-9.74499	
5.6997	15.4585	13.0147	-0.014556	-9.75882	
5.6997	15.3824	13.0489	-0.0124182	-9.68275	
5.7412	15.4447	13.0421	-0.0136398	-9.70349	
5.7827	15.4378	13.1175	-0.0142506	-9.65507	
5.80345	15.3963	13.1244	-0.0173045	-9.59282	
5.81729	15.4239	13.1586	-0.0151668	-9.60665	
5.79654	15.3963	13.1518	-0.0185261	-9.59974	
5.83804	15.4032	13.1861	-0.0166938	-9.56515	
5.87262	15.341	13.2066	-0.016083	-9.46833	
5.85879	15.3617	13.2478	-0.0188315	-9.50291	
5.86571	15.3755	13.1998	-0.0191369	-9.50982	
5.93488	15.3755	13.2546	-0.0221909	-9.44065	
5.96946	15.334	13.2684	-0.0221909	-9.36457	
6.0248	15.3479	13.2958	-0.0237179	-9.32307	
6.05247	15.334	13.3095	-0.0243286	-9.28157	
6.09397	15.334	13.3026	-0.0237179	-9.24006	
6.14239	15.3133	13.3301	-0.0267718	-9.1709	
6.14239	15.3686	13.3506	-0.0279934	-9.22622	
6.1839	15.3824	13.3644	-0.0270772	-9.19855	
6.14239	15.4101	13.3712	-0.0279934	-9.26772	
6.10089	15.4378	13.3918	-0.0270772	-9.33688	
6.12164	15.4032	13.3232	-0.0301312	-9.28155	
6.11472	15.4309	13.3506	-0.0325743	-9.31613	
6.12856	15.4931	13.4192	-0.0328797	-9.36454	
6.08706	15.5138	13.4055	-0.0365445	-9.42679	
6.05247	15.5692	13.4329	-0.0377661	-9.5167	
6.07322	15.5899	13.4466	-0.0380715	-9.51669	
6.03864	15.6522	13.4124	-0.0414308	-9.61352	
6.03864	15.7213	13.4809	-0.0450956	-9.68267	
6.03864	15.7213	13.4261	-0.0435686	-9.68267	
6.01097	15.7351	13.4604	-0.0450956	-9.72417	
5.99022	15.7697	13.4604	-0.0444848	-9.7795	
6.01097	15.8389	13.5084	-0.045401	-9.8279	
5.96946	15.8596	13.4946	-0.0441794	-9.89015	
5.96255	15.9011	13.4604	-0.0435686	-9.93856	
5.96946	15.9841	13.5152	-0.0432632	-10.0146	
5.94871	16.0187	13.4809	-0.0469279	-10.07	
5.97638	16.0048	13.4809	-0.0481495	-10.0285	
5.95563	16.0602	13.4878	-0.0487603	-10.1045	
5.9418	16.0947	13.5838	-0.0469279	-10.1529	
5.91413	16.0947	13.4878	-0.0457063	-10.1806	
5.95563	16.1846	13.5221	-0.0466225	-10.229	
5.88646	16.157	13.5289	-0.0447902	-10.2705	
5.84496	16.1639	13.5289	-0.0386822	-10.3189	
5.83804	16.1432	13.5495	-0.0362391	-10.3051	
5.82421	16.1708	13.5358	-0.0319635	-10.3466	
5.76195	16.157	13.4878	-0.0325743	-10.395	
5.73428	16.1639	13.5084	-0.029215	-10.4296	
5.72737	16.1362	13.4946	-0.0310474	-10.4089	
5.70661	16.1639	13.4809	-0.0286042	-10.4573	
5.60977	16.1017	13.4261	-0.0310474	-10.4919	
5.70661	16.1501	13.3986	-0.0337959	-10.4435	
5.68586	16.1017	13.3506	-0.0319635	-10.4158	
5.67203	16.0463	13.3644	-0.0319635	-10.3743	
5.69278	16.074	13.2889	-0.0301312	-10.3812	
5.71353	16.1086	13.2615	-0.0279934	-10.395	
5.71353	16.0602	13.2478	-0.0252448	-10.3466	
5.72737	16.074	13.1929	-0.0252448	-10.3466	
5.71353	16.0947	13.1792	-0.0228017	-10.3812	
5.73428	16.0878	13.1929	-0.0203585	-10.3535	
5.70661	16.074	13.0969	-0.0179153	-10.3674	
5.67203	16.1017	13.0901	-0.0142506	-10.4296	
5.71353	16.1293	13.0764	-0.0139452	-10.4158	
5.66511	16.1086	13.0078	-0.0118074	-10.4435	
5.66511	16.1708	13.0215	-0.0108912	-10.5057	
5.63053	16.0878	12.9872	-0.011502	-10.4573	
5.65819	16.157	12.9667	-0.0118074	-10.4988	
5.61669	16.1916	12.9872	-0.0124182	-10.5749	
5.64436	16.157	12.9872	-0.00936425	-10.5126	
5.67203	16.1846	12.9392	-0.00875346	-10.5126	
5.65128	16.24	12.8981	-0.00997504	-10.5887	
5.56827	16.2331	12.8844	-0.00783727	-10.6648	
5.62361	16.2123	12.9255	-0.00814267	-10.5887	
5.63744	16.2261	12.8501	-0.00905886	-10.5887	
5.62361	16.2261	12.8227	-0.00875346	-10.6025	
5.61669	16.2123	12.8089	-0.00753188	-10.5956	
5.61669	16.2607	12.7609	-0.00478332	-10.644	
5.68586	16.2815	12.7747	-0.00631029	-10.5956	
5.63744	16.2607	12.7404	-0.00264555	-10.6233	
5.66511	16.3022	12.6992	-0.000507775	-10.6371	
5.66511	16.2469	12.6924	0.00193539	-10.5818	
5.70661	16.2607	12.6444	0.00407316	-10.5541	
5.64436	16.3022	12.6512	0.00560014	-10.6579	
5.67203	16.2676	12.6238	0.00651633	-10.5956	
5.60977	16.2538	12.6169	0.0101811	-10.644	
5.61669	16.2884	12.5758	0.0129296	-10.6717	
5.55444	16.2331	12.5964	0.0156782	-10.6786	
5.53369	16.24	12.5552	0.016289	-10.7063	
5.50602	16.2331	12.5484	0.016289	-10.727	
5.52677	16.2261	12.4935	0.0156782	-10.6994	
5.50602	16.1985	12.5552	0.0190376	-10.6925	
5.42993	16.1639	12.5004	0.0190376	-10.734	
5.39534	16.1432	12.5072	0.0239239	-10.7478	
5.27775	16.1293	12.4592	0.0193429	-10.8516	
5.20166	16.0463	12.4318	0.0208699	-10.8447	
5.10482	16.0533	12.4249	0.0248401	-10.9484	
5.25008	16.0533	12.4455	0.0288102	-10.8032	
5.12558	16.0048	12.4318	0.0398045	-10.8793	
5.10482	15.8527	12.4455	0.0416368	-10.7479	
5.0149	15.8804	12.3701	0.0453016	-10.8655	
4.9319	15.7974	12.3975	0.0480502	-10.8655	
4.89039	15.7559	12.3495	0.0550743	-10.8655	
4.96648	15.6798	12.3427	0.0611822	-10.7133	
4.90423	15.6037	12.3632	0.0694279	-10.6995	
4.9734	15.5138	12.3358	0.0816437	-10.5404	
5.00798	15.5138	12.3152	0.0929433	-10.5059	
5.04257	15.3824	12.3084	0.111267	-10.3399	
5.06332	15.3548	12.2398	0.135088	-10.2915	
5.15324	15.2787	12.2672	0.153717	-10.1255	
5.22933	15.1888	12.2467	0.174179	-9.95948	
5.38151	15.1335	12.2055	0.207467	-9.75198	
5.4576	15.0505	12.1918	0.248084	-9.5929	
5.56135	14.9952	12.1644	0.270989	-9.43382	
5.67203	14.9606	12.1849	0.289618	-9.28857	
5.72045	14.926	12.1644	0.311912	-9.20557	
5.88646	14.8015	12.137	0.344589	-8.91508	
6.17698	14.7946	12.1507	0.250833	-8.61765	
6.27382	14.7255	12.1438	0.282899	-8.45165	
6.4675	14.6909	12.1575	0.292061	-8.2234	
6.39141	14.6356	12.1781	0.377878	-8.24416	
6.46058	14.5802	12.137	0.448424	-8.11966	
6.72343	14.5249	12.0615	0.409944	-7.80149	
6.82027	14.4488	12.1301	0.412998	-7.62858	
6.94478	14.3589	12.089	0.432543	-7.41417	
6.98628	14.3382	12.1301	0.431933	-7.35192	
7.06237	14.2829	12.1164	0.466748	-7.22051	
7.25605	14.1999	12.089	0.493317	-6.94384	
7.35289	14.1307	12.041	0.490874	-6.77785	
7.50507	14.1307	12.0958	0.470718	-6.62567	
7.48431	14.0201	12.137	0.483239	-6.53577	
7.63649	14.0132	12.1301	0.501563	-6.37668	
7.77483	13.944	12.0752	0.48385	-6.16918	
7.87167	13.861	12.0684	0.484461	-5.98936	
7.92701	13.8541	12.0615	0.551953	-5.9271	
7.96851	13.7366	12.0821	0.51897	-5.76804	
7.85784	13.6881	12.0478	0.517443	-5.8303	
7.82325	13.5844	12.0958	0.47652	-5.76116	
7.8025	13.5291	12.0547	0.503701	-5.72658	
7.8025	13.4738	12.0821	0.525078	-5.67126	
7.72641	13.453	12.0478	0.506755	-5.7266	
7.77483	13.4046	12.0547	0.523551	-5.62977	
7.85784	13.3562	12.0615	0.517138	-5.49836	
7.93393	13.3078	12.0204	0.476826	-5.37386	
7.87859	13.2041	12.0547	0.481407	-5.32546	
7.98235	13.1556	12.0204	0.508892	-5.1733	
7.96851	13.1556	12.0067	0.477742	-5.18713	
8.03768	13.1072	11.9724	0.479269	-5.06955	
8.10685	13.1211	11.993	0.467664	-5.01421	
8.19678	13.1349	11.9587	0.514389	-4.93812	
8.23136	13.1072	12.0272	0.447508	-4.87587	
8.2867	13.1003	11.9655	0.455143	-4.81362	
8.34895	13.1142	12.0204	0.496677	-4.7652	
8.30745	13.1626	11.9724	0.485071	-4.85511	
8.2867	13.1418	11.9655	0.510419	-4.85511	
8.3282	13.128	11.945	0.467359	-4.79978	
8.33512	13.1764	11.9724	0.465832	-4.84127	
8.23136	13.2179	11.993	0.493623	-4.98652	
8.32129	13.1764	11.9312	0.51103	-4.85511	
8.36971	13.2179	11.9655	0.515306	-4.84818	
8.46654	13.2386	11.945	0.471329	-4.77209	
8.46654	13.211	11.9655	0.508282	-4.74443	
8.5288	13.2801	11.9244	0.504922	-4.75133	
8.59797	13.3009	12.0067	0.545845	-4.7029	
8.51496	13.3908	11.9312	0.481101	-4.87581	
8.6118	13.3493	11.9175	0.456975	-4.73748	
8.71556	13.3631	11.9655	0.466137	-4.64755	
8.68098	13.3908	11.9655	0.498203	-4.7098	
8.67406	13.4046	11.9655	0.467969	-4.73055	
8.70864	13.4115	11.9724	0.470412	-4.70288	
8.68789	13.4254	11.9244	0.459113	-4.73746	
8.71556	13.4392	11.9381	0.471634	-4.72362	
8.7294	13.4115	11.9381	0.478964	-4.68212	
8.70173	13.3977	11.8901	0.510114	-4.69596	
8.79165	13.4115	11.9175	0.461861	-4.61987	
8.78473	13.453	11.9244	0.478047	-4.66828	
8.83315	13.37	11.9038	0.432849	-4.53687	
8.8539	13.3216	11.8901	0.460945	-4.46771	
8.79857	13.2801	11.8627	0.465526	-4.48156	
8.83315	13.294	11.8215	0.440484	-4.4608	
8.84699	13.2801	11.7598	0.472245	-4.43314	
8.88849	13.2455	11.7872	0.465221	-4.35706	
8.97841	13.1695	11.7667	0.445981	-4.19106	
8.92307	13.1695	11.7187	0.462778	-4.2464	
8.95766	13.1487	11.6981	0.462167	-4.19107	
9.00608	13.1695	11.6432	0.461556	-4.1634	
8.92999	13.1833	11.6295	0.440789	-4.25332	
8.99225	13.1418	11.6707	0.480796	-4.14957	
8.99225	13.1764	11.6364	0.455143	-4.18415	
9.04067	13.1626	11.6364	0.415747	-4.1219	
9.01991	13.1556	11.5747	0.446897	-4.13573	
9.04067	13.1695	11.6021	0.433154	-4.12881	
9.02683	13.1349	11.6295	0.471329	-4.10807	
9.15134	13.1211	11.6158	0.443232	-3.96973	
9.12367	13.1626	11.5952	0.409944	-4.03889	
9.12367	13.1902	11.609	0.445065	-4.06655	
9.17209	13.1626	11.5815	0.42216	-3.99047	
9.17901	13.1418	11.609	0.454227	-3.96281	
9.15826	13.1626	11.561	0.434376	-4.0043	
9.24126	13.1556	11.6021	0.445675	-3.91438	
9.27585	13.1695	11.5952	0.429795	-3.89363	
9.17209	13.1764	11.5541	0.432543	-4.0043	
9.31735	13.1142	11.6021	0.409944	-3.7968	
9.3381	13.1833	11.5884	0.434987	-3.84521	
9.3796	13.1695	11.6227	0.408417	-3.78987	
9.26201	13.2179	11.5952	0.417274	-3.95587	
9.35885	13.2248	11.609	0.409944	-3.86595	
9.37269	13.287	11.6295	0.417579	-3.91435	
9.36577	13.2317	11.6364	0.407806	-3.86595	
9.3796	13.2317	11.6775	0.363524	-3.85211	
9.45569	13.2594	11.6364	0.399561	-3.80369	
9.40727	13.3216	11.6501	0.365967	-3.91435	
9.42802	13.3078	11.6227	0.36841	-3.87976	
9.48336	13.3285	11.6775	0.385512	-3.84517	
9.45569	13.294	11.6707	0.380015	-3.83826	
9.47644	13.3147	11.6775	0.369326	-3.83826	
9.40036	13.3078	11.7187	0.369021	-3.90743	
9.50411	13.3354	11.7118	0.356805	-3.83134	
9.54562	13.3631	11.7187	0.366273	-3.8175	
9.46953	13.2732	11.7872	0.319547	-3.80368	
9.44878	13.2594	11.7872	0.328709	-3.8106	
9.46261	13.3285	11.8078	0.333595	-3.86592	
9.44878	13.294	11.8352	0.361997	-3.84518	
9.46953	13.2386	11.8078	0.368716	-3.7691	
9.52486	13.2801	11.8421	0.353446	-3.75526	
9.59404	13.294	11.8832	0.297864	-3.69992	
9.55253	13.211	11.9312	0.340314	-3.65844	
9.4972	13.1695	11.945	0.322601	-3.67228	
9.56637	13.211	11.9655	0.30611	-3.6446	
9.55945	13.1695	11.9244	0.330847	-3.61003	
9.60787	13.1142	11.9724	0.326876	-3.50628	
9.63554	13.1142	11.9518	0.307942	-3.47861	
9.64937	13.1142	12.0135	0.285343	-3.46478	
9.6217	13.045	12.0547	0.28748	-3.42329	
9.64246	13.045	12.0958	0.308247	-3.40254	
9.6217	13.0312	12.0615	0.295421	-3.40946	
9.65629	12.9482	12.1164	0.255108	-3.29189	
9.58712	12.9689	12.1438	0.265492	-3.38181	
9.60787	12.9274	12.1781	0.258468	-3.31956	
9.63554	12.9274	12.137	0.270378	-3.2919	
9.58712	12.8929	12.2192	0.290229	-3.30574	
9.64937	12.9067	12.2947	0.273738	-3.25731	
9.64937	12.8998	12.2467	0.265797	-3.2504	
9.6217	12.9067	12.2809	0.265187	-3.28498	
9.59404	12.8444	12.3632	0.251138	-3.25041	
9.5387	12.8306	12.3701	0.245641	-3.29192	
9.60095	12.8721	12.4044	0.258162	-3.27116	
9.51795	12.8514	12.4798	0.246863	-3.33342	
9.55253	12.8306	12.4867	0.262743	-3.27808	
9.54562	12.8514	12.5415	0.267019	-3.30575	
9.59404	12.8168	12.5209	0.261522	-3.22275	
9.55945	12.7338	12.6032	0.252665	-3.17435	
9.60095	12.7615	12.5964	0.242893	-3.16051	
9.59404	12.7407	12.6375	0.238617	-3.14668	
9.60095	12.7269	12.6307	0.241366	-3.12593	
9.60787	12.72	12.7472	0.262438	-3.1121	
9.60787	12.72	12.7404	0.265187	-3.1121	
9.65629	12.6646	12.7952	0.250222	-3.00835	
9.66321	12.6992	12.8021	0.241976	-3.03601	
9.69779	12.72	12.8844	0.231288	-3.02218	
9.68396	12.6716	12.8707	0.233731	-2.9876	
9.72546	12.6646	12.8844	0.232815	-2.93918	
9.73929	12.6577	12.9667	0.234647	-2.91843	
9.73929	12.6646	12.9735	0.219072	-2.92535	
9.74621	12.6024	12.9941	0.193113	-2.85619	
9.79463	12.554	13.0078	0.194335	-2.75936	
9.83613	12.637	13.0558	0.180592	-2.80085	
9.88455	12.5955	13.1038	0.184257	-2.71093	
9.93989	12.5886	13.1175	0.177843	-2.64868	
9.96064	12.6577	13.1038	0.144861	-2.69708	
9.99523	12.5817	13.1655	0.163795	-2.58643	
9.99523	12.6439	13.1655	0.155855	-2.64867	
10.0436	12.5886	13.2066	0.154022	-2.54492	
10.0091	12.6716	13.2272	0.146082	-2.6625	
10.0367	12.7061	13.2752	0.132645	-2.66941	
9.94681	12.6923	13.2546	0.11768	-2.7455	
10.0436	12.7269	13.3438	0.122567	-2.68323	
10.0229	12.8099	13.3369	0.113099	-2.78697	
10.0091	12.8859	13.3644	0.0926379	-2.87688	
10.0229	12.8998	13.3644	0.0963027	-2.87687	
10.1197	13.0173	13.3575	0.0837815	-2.8976	
10.0852	13.1003	13.4261	0.0798113	-3.01517	
10.1267	13.0865	13.4535	0.0721764	-2.95984	
9.19976	13.1626	13.4192	0.00376777	-3.9628	
8.58414	13.2801	13.4604	-0.00631029	-4.69599	
7.85784	13.3216	13.4672	-0.0469279	-5.46378	
7.94084	13.4115	13.4604	-0.071665	-5.47068	
7.71258	13.5083	13.5289	-0.111672	-5.79576	
7.20763	13.4876	13.4604	-0.165727	-6.27996	
7.2353	13.6259	13.4055	-0.23383	-6.3906	
7.16613	13.6881	13.4672	-0.312928	-6.52202	
7.34597	13.7435	13.4535	-0.284831	-6.39749	
7.26988	13.7919	13.3918	-0.281166	-6.52199	
7.20071	13.8679	13.3918	-0.272615	-6.66723	
7.16613	13.9302	13.3918	-0.252459	-6.76406	
7.22146	13.9509	13.3781	-0.262232	-6.72947	
7.29063	14.0339	13.3712	-0.268034	-6.74328	
7.22146	14.0339	13.3506	-0.315982	-6.81245	
7.25605	14.0892	13.3026	-0.255513	-6.83319	
7.26988	14.11	13.3026	-0.285137	-6.84011	
7.2353	14.11	13.1861	-0.294298	-6.87469	
7.20763	14.0962	13.1724	-0.276891	-6.88853	
7.09696	14.1169	13.1998	-0.296436	-7.01995	
7.0762	14.1653	13.1312	-0.278723	-7.08911	
7.00012	14.1584	13.0764	-0.255513	-7.15828	
7.09004	14.1653	13.1038	-0.276891	-7.07527	
7.09696	14.1791	13.0489	-0.275059	-7.08219	
7.04162	14.2206	12.9941	-0.290023	-7.17902	
6.91711	14.193	12.9872	-0.282388	-7.27587	
6.94478	14.1791	12.9118	-0.253375	-7.23437	
6.93094	14.1999	12.8501	-0.242381	-7.26895	
6.97936	14.2206	12.7884	-0.30285	-7.24127	
6.91019	14.2345	12.6855	-0.311095	-7.32428	
6.88944	14.2206	12.6787	-0.305598	-7.3312	
6.90328	14.2137	12.6032	-0.282388	-7.31045	
6.86869	14.2414	12.5964	-0.221614	-7.37269	
6.86869	14.2552	12.5621	-0.28025	-7.38652	
6.92403	14.2414	12.4935	-0.261621	-7.31736	
6.84794	14.2967	12.4387	-0.290328	-7.44877	
6.76493	14.276	12.4524	-0.250322	-7.51103	
6.84102	14.3175	12.4112	-0.274142	-7.47643	
6.86177	14.3382	12.3221	-0.249711	-7.47643	
6.75802	14.2829	12.3015	-0.227722	-7.52486	
6.79952	14.3105	12.2467	-0.240854	-7.51102	
6.81335	14.3313	12.2124	-0.315065	-7.51793	
6.75802	14.352	12.1918	-0.255819	-7.59402	
6.87561	14.3866	12.1232	-0.269867	-7.511	
6.85486	14.4004	12.0958	-0.262232	-7.54559	
6.80644	14.3866	12.0684	-0.259789	-7.58017	
6.79952	14.4143	12.041	-0.273837	-7.61475	
6.72343	14.518	11.993	-0.253375	-7.79457	
6.76493	14.4558	11.9861	-0.261316	-7.69083	
6.76493	14.4903	11.9587	-0.289412	-7.72541	
6.77185	14.4834	11.8764	-0.242992	-7.71158	
6.77877	14.5526	11.849	-0.189548	-7.77382	
6.77185	14.5111	11.8215	-0.193823	-7.73924	
6.77185	14.518	11.7804	-0.270478	-7.74615	
6.73035	14.5388	11.7941	-0.257346	-7.8084	
6.64734	14.5457	11.7804	-0.248795	-7.89832	
6.72343	14.5318	11.7255	-0.213369	-7.80841	
6.71651	14.5457	11.6707	-0.239938	-7.82915	
6.76493	14.5388	11.6844	-0.258873	-7.77382	
6.73035	14.5733	11.6295	-0.215812	-7.84298	
6.70268	14.5526	11.5952	-0.202985	-7.8499	
6.7511	14.5388	11.5952	-0.243908	-7.78765	
6.64043	14.5872	11.5335	-0.208482	-7.94674	
6.66118	14.5526	11.5815	-0.213063	-7.89141	
6.66118	14.5526	11.5747	-0.261927	-7.89141	
6.66118	14.5042	11.5335	-0.200237	-7.843	
6.68193	14.5526	11.5404	-0.205734	-7.87065	
6.61276	14.4627	11.5404	-0.182829	-7.84992	
6.55742	14.518	11.4992	-0.187715	-7.96059	
6.57125	14.518	11.4581	-0.219782	-7.94675	
6.5505	14.4903	11.4855	-0.204207	-7.93984	
6.47441	14.4419	11.4512	-0.21856	-7.96752	
6.45366	14.3866	11.4444	-0.200237	-7.93295	
6.42599	14.3797	11.4375	-0.200542	-7.9537	
6.48133	14.3036	11.4307	-0.184967	-7.82229	
6.42599	14.3175	11.4375	-0.19932	-7.89146	
6.39141	14.2068	11.4444	-0.222836	-7.8154	
6.37066	14.1999	11.3758	-0.176416	-7.82923	
6.32915	14.0962	11.417	-0.184967	-7.767	
6.32224	14.11	11.3895	-0.209704	-7.78775	
6.31532	14.0547	11.3484	-0.218866	-7.73934	
6.36374	13.9786	11.369	-0.160841	-7.61485	
6.32224	13.944	11.3552	-0.14893	-7.62178	
6.25998	13.8887	11.3758	-0.169392	-7.62871	
6.27382	13.9025	11.3072	-0.19535	-7.6287	
6.25998	13.8679	11.369	-0.205123	-7.60796	
6.32224	13.861	11.3141	-0.197183	-7.53879	
6.28765	13.8472	11.3278	-0.178859	-7.55955	
6.25998	13.8126	11.321	-0.165421	-7.55264	
6.28765	13.8057	11.2935	-0.19871	-7.51805	
6.25307	13.785	11.3141	-0.190464	-7.53189	
6.28073	13.702	11.321	-0.202069	-7.42124	
6.28073	13.7158	11.369	-0.166643	-7.43507	
6.21156	13.6812	11.3347	-0.167865	-7.46966	
6.25307	13.6466	11.369	-0.14496	-7.39358	
6.2669	13.6743	11.3621	-0.183134	-7.40741	
6.23923	13.5775	11.4101	-0.184051	-7.33826	
6.17006	13.5913	11.3964	-0.172446	-7.42126	
6.28073	13.5844	11.417	-0.172751	-7.30367	
6.25307	13.5083	11.4787	-0.152595	-7.25527	
6.24615	13.5153	11.4375	-0.155649	-7.2691	
6.32915	13.4807	11.4375	-0.162978	-7.15152	
6.31532	13.453	11.4718	-0.174278	-7.13769	
6.31532	13.4392	11.513	-0.164811	-7.12386	
6.32224	13.3977	11.5404	-0.144349	-7.07545	
6.34299	13.4046	11.5815	-0.151373	-7.06162	
6.36374	13.3631	11.5884	-0.158397	-6.99937	
6.36374	13.37	11.5472	-0.14893	-7.00629	
6.39833	13.3285	11.609	-0.150152	-6.93021	
6.40524	13.3078	11.5678	-0.186494	-6.90254	
6.42599	13.3354	11.5678	-0.180691	-6.90945	
6.42599	13.3009	11.5884	-0.15626	-6.87488	
6.48825	13.3216	11.6158	-0.170308	-6.83337	
6.50208	13.3354	11.657	-0.162978	-6.83337	
6.509	13.3769	11.5815	-0.168781	-6.86794	
6.52975	13.294	11.6432	-0.178859	-6.7642	
6.56434	13.3078	11.6364	-0.184661	-6.74345	
6.56434	13.3216	11.6227	-0.158092	-6.75728	
6.57125	13.3493	11.6707	-0.17947	-6.77803	
6.56434	13.3631	11.6707	-0.165421	-6.79877	
6.5505	13.4115	11.6844	-0.163895	-6.86102	
6.49517	13.4184	11.6364	-0.180386	-6.92327	
6.53667	13.536	11.6707	-0.140074	-6.99933	
6.61276	13.536	11.6707	-0.158092	-6.92324	
6.50208	13.5637	11.7187	-0.180386	-7.06158	
6.52975	13.6259	11.7118	-0.169697	-7.09615	
6.47441	13.6466	11.7118	-0.166338	-7.17223	
6.48133	13.7366	11.705	-0.163895	-7.25522	
6.49517	13.7919	11.7187	-0.172446	-7.29671	
6.49517	13.8265	11.6981	-0.158092	-7.33129	
6.46058	13.9025	11.7324	-0.148625	-7.44194	
6.46058	13.9025	11.7118	-0.147403	-7.44194	
6.41908	14.0063	11.705	-0.165116	-7.58718	
6.41908	13.9924	11.7392	-0.158092	-7.57335	
6.4675	14.0408	11.7187	-0.149846	-7.57334	
6.37757	14.1307	11.7255	-0.146182	-7.75316	
6.34991	14.1169	11.7187	-0.174583	-7.767	
6.38449	14.1791	11.7118	-0.155954	-7.79465	
6.37757	14.1653	11.7324	-0.142822	-7.78774	
6.36374	14.2483	11.7804	-0.150457	-7.88456	
6.34991	14.2552	11.7461	-0.174278	-7.90531	
6.28765	14.2621	11.7392	-0.148319	-7.97448	
6.23923	14.2829	11.753	-0.148625	-8.04364	
6.28765	14.2898	11.7255	-0.142517	-8.00214	
6.23232	14.3244	11.7255	-0.147098	-8.09205	
6.28073	14.3451	11.7118	-0.164811	-8.06438	
6.2254	14.3382	11.7392	-0.149541	-8.1128	
6.23923	14.3244	11.7255	-0.159314	-8.08514	
6.2254	14.3036	11.6981	-0.162978	-8.07823	
6.1839	14.3382	11.6158	-0.145571	-8.15431	
6.25307	14.2898	11.5952	-0.125415	-8.03673	
6.21156	14.2967	11.6158	-0.114726	-8.08514	
6.23232	14.2898	11.5678	-0.142211	-8.05748	
6.24615	14.2967	11.5747	-0.164811	-8.05056	
6.24615	14.3313	11.5198	-0.141906	-8.08514	
6.24615	14.3244	11.4992	-0.155954	-8.07822	
6.28765	14.352	11.4581	-0.134577	-8.06438	
6.23232	14.3589	11.4718	-0.121444	-8.12663	
6.19773	14.3797	11.3964	-0.145265	-8.18196	
6.2669	14.3866	11.4101	-0.147403	-8.11971	
6.24615	14.4212	11.4307	-0.141906	-8.17504	
6.21156	14.4419	11.3621	-0.149846	-8.23037	
6.25307	14.4765	11.3072	-0.139157	-8.22345	
6.1839	14.4627	11.3552	-0.133355	-8.27879	
6.15623	14.4903	11.3278	-0.14496	-8.33412	
6.17006	14.5111	11.3141	-0.126636	-8.34103	
6.12164	14.5318	11.273	-0.119612	-8.41019	
6.21156	14.5249	11.2593	-0.132744	-8.31336	
6.19081	14.518	11.2798	-0.14496	-8.32719	
6.12164	14.5733	11.2318	-0.138547	-8.45169	
6.17698	14.5872	11.2935	-0.147098	-8.41018	
6.15623	14.6148	11.2798	-0.114115	-8.4586	
6.19081	14.6287	11.2387	-0.143433	-8.43784	
6.1839	14.6909	11.2044	-0.150152	-8.507	
6.17006	14.6978	11.2867	-0.137325	-8.52775	
6.13548	14.7047	11.1838	-0.138241	-8.56925	
6.15623	14.7531	11.1495	-0.11778	-8.59691	
6.12164	14.7324	11.1975	-0.123277	-8.61075	
6.16314	14.8085	11.2181	-0.118085	-8.64531	
6.19081	14.7946	11.1975	-0.140684	-8.60381	
6.17006	14.7946	11.1838	-0.15687	-8.62457	
6.20465	14.7946	11.1701	-0.14099	-8.58998	
6.08706	14.8292	11.1701	-0.122055	-8.74215	
6.14239	14.8776	11.1701	-0.115642	-8.73522	
6.12856	14.8361	11.2044	-0.118085	-8.70756	
6.15623	14.8776	11.1495	-0.123888	-8.72139	
6.12164	14.8776	11.1701	-0.140684	-8.75597	
6.14239	14.8638	11.1701	-0.142517	-8.72139	
6.11472	14.8638	11.1701	-0.121444	-8.74906	
6.12164	14.8914	11.2044	-0.125109	-8.7698	
6.12856	14.8984	11.2113	-0.107091	-8.7698	
6.13548	14.8292	11.2044	-0.115031	-8.69373	
6.10781	14.8707	11.225	-0.13366	-8.76289	
6.10781	14.8223	11.1907	-0.135798	-8.71448	
6.0663	14.843	11.2181	-0.114726	-8.77673	
6.05247	14.7877	11.1907	-0.10251	-8.73524	
6.03864	14.8223	11.2455	-0.101594	-8.78365	
6.0248	14.8015	11.225	-0.099456	-8.77674	
6.01788	14.767	11.2524	-0.116558	-8.74908	
6.01788	14.7047	11.2593	-0.104648	-8.68684	
5.95563	14.6771	11.321	-0.111061	-8.72143	
5.94871	14.6771	11.273	-0.112588	-8.72835	
5.93488	14.601	11.2867	-0.114115	-8.66611	
5.99022	14.5802	11.2935	-0.111672	-8.59003	
5.9833	14.5664	11.3004	-0.110756	-8.58311	
5.97638	14.4903	11.3347	-0.10251	-8.51396	
5.97638	14.4488	11.3347	-0.0954859	-8.47247	
6.01097	14.4419	11.3827	-0.100983	-8.43097	
6.01788	14.4627	11.3827	-0.112588	-8.4448	
6.01097	14.435	11.417	-0.107702	-8.42405	
6.03172	14.3797	11.4101	-0.110756	-8.34798	
5.99713	14.3728	11.4101	-0.0970128	-8.37565	
5.95563	14.3105	11.417	-0.0973182	-8.35491	
6.00405	14.3866	11.4512	-0.0933481	-8.38256	
5.9833	14.352	11.4924	-0.0930427	-8.36873	
5.95563	14.3382	11.4581	-0.0939589	-8.38257	
6.00405	14.3313	11.5404	-0.0869348	-8.32724	
5.97638	14.3036	11.5198	-0.0899887	-8.32724	
5.99713	14.2621	11.5335	-0.0860186	-8.265	
6.00405	14.276	11.5747	-0.0893779	-8.27191	
5.97638	14.2206	11.5815	-0.0881564	-8.24426	
5.96255	14.2621	11.6501	-0.0829646	-8.29958	
5.93488	14.2068	11.6364	-0.084797	-8.27193	
6.01788	14.1515	11.7255	-0.0915157	-8.1336	
5.99022	14.1515	11.7255	-0.0936535	-8.16127	
6.01097	14.1515	11.6844	-0.0838808	-8.14051	
5.96255	14.1791	11.7667	-0.0820484	-8.2166	
5.99022	14.1584	11.8147	-0.086324	-8.16818	
5.96946	14.1653	11.8558	-0.0912103	-8.19585	
5.96946	14.1377	11.8695	-0.0860186	-8.16819	
6.01097	14.1238	11.8695	-0.0768567	-8.11285	
6.05939	14.1307	11.9655	-0.084797	-8.07135	
6.0663	14.1377	11.9724	-0.0909049	-8.07135	
6.0663	14.1307	12.0204	-0.0988452	-8.06443	
6.12164	14.0962	12.041	-0.0902941	-7.97452	
6.13548	14.0823	12.0478	-0.0942643	-7.94685	
6.17006	14.0892	12.0615	-0.097929	-7.91918	
6.19773	14.1169	12.1575	-0.0915157	-7.91917	
6.15623	14.1446	12.137	-0.10648	-7.98834	
6.25307	14.1238	12.1301	-0.0982344	-7.87075	
6.25998	14.11	12.1301	-0.108007	-7.85001	
6.29457	14.1238	12.1781	-0.108312	-7.82925	
6.28765	14.1238	12.2124	-0.105259	-7.83617	
6.30149	14.1238	12.1849	-0.0991506	-7.82233	
6.31532	14.1861	12.2398	-0.0985398	-7.87074	
6.36374	14.2137	12.2329	-0.106175	-7.84998	
6.35682	14.2068	12.2741	-0.108923	-7.84998	
6.29457	14.2345	12.2878	-0.101288	-7.9399	
6.34299	14.276	12.2809	-0.0982344	-7.93297	
6.30149	14.3451	12.3015	-0.101594	-8.04363	
6.33607	14.4074	12.3289	-0.115031	-8.07128	
6.37066	14.4143	12.3495	-0.113199	-8.04361	
6.3084	14.4973	12.3975	-0.111977	-8.18885	
6.30149	14.5526	12.4044	-0.108312	-8.2511	
6.28765	14.6356	12.4112	-0.115642	-8.34792	
6.25307	14.6563	12.4044	-0.112283	-8.40325	
6.19773	14.7047	12.4318	-0.0997614	-8.50699	
6.23232	14.684	12.4524	-0.103732	-8.45166	
6.20465	14.8223	12.3769	-0.118696	-8.61764	
6.20465	14.8292	12.5072	-0.115642	-8.62456	
6.23923	14.9329	12.4867	-0.0988452	-8.6937	
6.19081	14.9537	12.4524	-0.0997614	-8.76287	
6.14239	14.9744	12.4798	-0.121139	-8.83204	
6.12164	15.0367	12.4867	-0.126331	-8.91503	
6.14931	15.0436	12.4867	-0.129385	-8.89428	
6.15623	15.1197	12.5141	-0.112588	-8.96343	
6.1839	15.0989	12.5758	-0.117169	-8.91501	
6.04555	15.1266	12.5621	-0.108007	-9.08102	
6.11472	15.175	12.6101	-0.113199	-9.06026	
6.08014	15.1681	12.6101	-0.112283	-9.08793	
6.03864	15.2026	12.5964	-0.102815	-9.16401	
6.08014	15.1957	12.5827	-0.10648	-9.11559	
6.01097	15.1473	12.5621	-0.100678	-9.13635	
6.01097	15.2165	12.5758	-0.105259	-9.20551	
5.97638	15.175	12.5621	-0.107702	-9.1986	
6.03172	15.1957	12.5484	-0.111977	-9.16401	
5.9833	15.2165	12.5072	-0.103732	-9.23317	
6.01788	15.1888	12.5004	-0.0976236	-9.17093	
6.01788	15.175	12.4592	-0.101899	-9.1571	
6.03172	15.1957	12.4455	-0.107396	-9.16401	
6.03172	15.1957	12.4112	-0.103121	-9.16401	
5.97638	15.2511	12.3975	-0.0954859	-9.27467	
5.97638	15.175	12.3975	-0.109839	-9.1986	
6.01097	15.2303	12.3632	-0.111061	-9.21934	
5.9833	15.2372	12.3289	-0.0970128	-9.25392	
6.00405	15.3064	12.3152	-0.0939589	-9.30233	
5.9418	15.2649	12.3358	-0.0954859	-9.32309	
5.93488	15.2856	12.2947	-0.100372	-9.35075	
5.9418	15.2718	12.3221	-0.0954859	-9.33	
5.99022	15.341	12.2604	-0.0838808	-9.35074	
5.90721	15.334	12.2329	-0.0884618	-9.42683	
5.97638	15.3686	12.2055	-0.0921265	-9.39223	
5.96255	15.3755	12.1987	-0.0973182	-9.41298	
5.93488	15.4447	12.2192	-0.0945697	-9.50981	
5.95563	15.4516	12.1987	-0.0866294	-9.49597	
5.9418	15.4793	12.2398	-0.0835754	-9.53747	
5.9418	15.4447	12.2055	-0.084797	-9.50289	
5.99022	15.5138	12.1781	-0.0872402	-9.52363	
5.95563	15.5	12.1987	-0.0838808	-9.54438	
5.94871	15.5415	12.2055	-0.0796053	-9.59279	
6.01097	15.5484	12.1507	-0.0857132	-9.53745	
5.95563	15.5899	12.1712	-0.0811323	-9.63428	
5.94871	15.5899	12.1575	-0.0780783	-9.6412	
5.92796	15.6314	12.2124	-0.0792999	-9.70344	
5.97638	15.6798	12.1095	-0.0738028	-9.70343	
5.9418	15.6522	12.1781	-0.0783837	-9.71036	
5.94871	15.6383	12.1507	-0.0796053	-9.68961	
5.96255	15.6591	12.1301	-0.0780783	-9.69652	
5.94871	15.6383	12.1438	-0.0738028	-9.68961	
5.92796	15.6867	12.1164	-0.0719704	-9.75877	
5.93488	15.6452	12.089	-0.0750243	-9.71036	
5.96255	15.6729	12.1095	-0.0728866	-9.71035	
5.96946	15.7144	12.1507	-0.0689164	-9.74493	
5.96255	15.6522	12.0615	-0.0750243	-9.6896	
6.01097	15.7559	12.1164	-0.0741082	-9.74492	
5.96255	15.6936	12.1027	-0.0783837	-9.7311	
5.97638	15.6729	12.1164	-0.0741082	-9.69652	
5.96946	15.6591	12.1164	-0.0710542	-9.6896	
5.95563	15.6936	12.1712	-0.0658625	-9.73801	
6.0663	15.7144	12.1301	-0.0704434	-9.64809	
5.96946	15.666	12.137	-0.0710542	-9.69652	
5.9833	15.6245	12.137	-0.0692218	-9.64119	
5.95563	15.666	12.1781	-0.0621977	-9.71035	
5.92104	15.5622	12.2124	-0.0548682	-9.64121	
5.95563	15.6037	12.2055	-0.0609761	-9.64811	
5.94871	15.5761	12.1918	-0.0621977	-9.62737	
5.87262	15.4862	12.1918	-0.0673894	-9.61355	
5.89338	15.4516	12.1918	-0.0594492	-9.55823	
5.89338	15.4862	12.2672	-0.0625031	-9.5928	
5.87262	15.417	12.2809	-0.0640301	-9.5444	
5.88646	15.3894	12.2741	-0.0621977	-9.5029	
5.89338	15.3202	12.2672	-0.0637247	-9.42683	
5.92104	15.3479	12.2467	-0.0655571	-9.42682	
5.85879	15.3271	12.2398	-0.0631139	-9.46833	
5.87262	15.258	12.2261	-0.0625031	-9.38534	
5.86571	15.258	12.3015	-0.0606707	-9.39226	
5.87954	15.1888	12.2604	-0.0560898	-9.30927	
5.90029	15.2096	12.2947	-0.0591438	-9.30926	
5.87954	15.1888	12.3015	-0.0591438	-9.30927	
5.87262	15.1819	12.3152	-0.0560898	-9.30927	
5.86571	15.1888	12.3358	-0.0521197	-9.3231	
5.83804	15.1611	12.3495	-0.0512035	-9.32311	
5.85187	15.1819	12.3701	-0.0545628	-9.33002	
5.87954	15.1266	12.4181	-0.053952	-9.24703	
5.89338	15.1335	12.4112	-0.0502873	-9.24011	
5.85879	15.1473	12.4935	-0.0484549	-9.28853	
5.87954	15.1611	12.4935	-0.0490657	-9.28161	
5.85879	15.0782	12.5278	-0.0521197	-9.21937	
5.92104	15.0367	12.5278	-0.0518143	-9.11562	
5.86571	15.0436	12.6101	-0.0487603	-9.17788	
5.91413	15.0712	12.6238	-0.0487603	-9.15712	
5.85187	15.009	12.6238	-0.0450956	-9.15713	
5.87954	15.0298	12.6581	-0.0508981	-9.15021	
5.88646	15.0159	12.6855	-0.0499819	-9.12946	
5.87262	15.0228	12.7541	-0.0493711	-9.15021	
5.85187	15.0298	12.7678	-0.043874	-9.17788	
5.91413	15.0574	12.8089	-0.0466225	-9.14329	
5.93488	14.9813	12.8089	-0.0484549	-9.04647	
5.92796	15.0228	12.8569	-0.0515089	-9.09488	
5.87262	14.9675	12.8707	-0.0515089	-9.09489	
5.96946	14.9606	12.9255	-0.0521197	-8.99113	
5.96946	14.9329	12.9598	-0.0551736	-8.96347	
6.01097	14.9468	12.9529	-0.0594492	-8.9358	
6.03172	14.9329	12.9667	-0.0588384	-8.90122	
6.01788	14.9606	13.0009	-0.0615869	-8.94271	
6.10089	14.9329	13.0147	-0.0634193	-8.83205	
6.12164	14.8707	13.0558	-0.0615869	-8.74906	
6.1839	14.9122	13.0215	-0.0634193	-8.72829	
6.15623	14.9191	13.0558	-0.0655571	-8.76288	
6.19081	14.9675	13.0489	-0.0643355	-8.7767	
6.12856	14.9675	13.1106	-0.0664733	-8.83896	
6.21156	14.9744	13.1518	-0.0631139	-8.76287	
6.1839	15.0159	13.0626	-0.0652517	-8.83203	
6.19081	15.0436	13.0764	-0.0670841	-8.85277	
6.17698	15.0367	13.1312	-0.0655571	-8.85969	
6.14239	15.0782	13.1175	-0.0680002	-8.93577	
6.17698	15.1335	13.1449	-0.0695272	-8.95651	
6.14931	15.1819	13.1792	-0.0683056	-9.03259	
6.16314	15.2234	13.1929	-0.0725812	-9.06025	
6.15623	15.334	13.1724	-0.0765513	-9.17781	
6.15623	15.334	13.2272	-0.0765513	-9.17781	
6.16314	15.3963	13.2204	-0.0725812	-9.23313	
6.12856	15.3894	13.1929	-0.0722758	-9.2608	
6.09397	15.4378	13.2204	-0.0744135	-9.3438	
6.10089	15.4654	13.2478	-0.0707488	-9.36454	
6.12164	15.5899	13.2341	-0.0734974	-9.46827	
6.14239	15.6245	13.2889	-0.0728866	-9.4821	
6.10781	15.5968	13.3369	-0.0750243	-9.48902	
6.10089	15.6314	13.3026	-0.0768567	-9.53052	
6.11472	15.7075	13.3164	-0.0744135	-9.59275	
6.10781	15.7213	13.2889	-0.0741082	-9.6135	
6.09397	15.7905	13.2889	-0.0774675	-9.69649	
6.05939	15.749	13.3164	-0.0753297	-9.68958	
6.07322	15.7835	13.3506	-0.0753297	-9.71033	
6.01097	15.8389	13.3232	-0.0692218	-9.8279	
6.03864	15.7974	13.3849	-0.0667787	-9.75874	
5.99713	15.8596	13.3712	-0.0621977	-9.86248	
5.96946	15.8389	13.3918	-0.0597546	-9.86941	
5.93488	15.832	13.3369	-0.0579222	-9.89708	
5.87954	15.8734	13.2821	-0.055479	-9.99391	
5.91413	15.8389	13.2821	-0.0573114	-9.92474	
5.83112	15.8873	13.3095	-0.0621977	-10.0562	
5.81729	15.7697	13.2478	-0.0612815	-9.95243	
5.86571	15.8389	13.2409	-0.0637247	-9.97316	
5.84496	15.7835	13.1929	-0.0658625	-9.93859	
5.83804	15.8112	13.1449	-0.0631139	-9.97317	
5.79654	15.7766	13.1998	-0.0652517	-9.98009	
5.79654	15.8458	13.1312	-0.0603653	-10.0493	
5.83112	15.7905	13.0901	-0.0618923	-9.95934	
5.83804	15.8458	13.0832	-0.058533	-10.0077	
5.85187	15.8665	13.0284	-0.0533412	-10.0147	
5.82421	15.832	13.0215	-0.0545628	-10.0078	
5.83112	15.8942	13.0147	-0.0484549	-10.0631	
5.81729	15.8665	12.9804	-0.0447902	-10.0492	
5.81729	15.8804	12.9735	-0.0429578	-10.0631	
5.76195	15.9426	12.9804	-0.0420416	-10.1807	
5.75503	15.9011	12.9392	-0.04082	-10.1461	
5.81037	15.9495	12.9118	-0.04082	-10.1391	
5.71353	15.9219	12.8981	-0.04082	-10.2083	
5.77579	15.9703	12.8501	-0.039293	-10.1945	
5.72737	15.9772	12.8569	-0.0356283	-10.2498	
5.7412	15.9357	12.8364	-0.0344067	-10.1945	
5.80345	15.9772	12.8432	-0.0359337	-10.1737	
5.72045	15.991	12.8501	-0.0371553	-10.2706	
5.76195	16.0463	12.8501	-0.0347121	-10.2844	
5.7412	16.0118	12.8021	-0.0337959	-10.2706	
5.77579	16.0671	12.7609	-0.0328797	-10.2913	
5.77579	16.0809	12.8021	-0.030742	-10.3051	
5.75503	16.074	12.7747	-0.0289096	-10.319	
5.83112	16.157	12.7404	-0.0313527	-10.3259	
5.82421	16.1086	12.7061	-0.030742	-10.2844	
5.80345	16.1639	12.7198	-0.0316581	-10.3604	
5.85187	16.1777	12.7815	-0.0304366	-10.3259	
5.86571	16.1293	12.6581	-0.0316581	-10.2636	
5.89338	16.1985	12.6787	-0.0319635	-10.3051	
5.82421	16.2261	12.6924	-0.0325743	-10.4019	
5.85187	16.157	12.6581	-0.0319635	-10.3051	
5.83804	16.1432	12.6444	-0.0301312	-10.3051	
5.86571	16.1501	12.6649	-0.0301312	-10.2844	
5.85187	16.1777	12.6512	-0.0322689	-10.3259	
5.85879	16.1708	12.6581	-0.0295204	-10.312	
5.92104	16.1916	12.6512	-0.0316581	-10.2705	
5.85879	16.1777	12.6375	-0.0322689	-10.3189	
5.89338	16.1846	12.7061	-0.0279934	-10.2913	
5.87954	16.1501	12.6855	-0.0295204	-10.2705	
5.85879	16.1293	12.6238	-0.0270772	-10.2705	
5.86571	16.1224	12.6992	-0.0243286	-10.2567	
5.85187	16.1362	12.6924	-0.0231071	-10.2844	
5.83112	16.0947	12.6787	-0.0215801	-10.2636	
5.84496	16.1086	12.7198	-0.0203585	-10.2636	
5.81729	15.9979	12.6718	-0.0228017	-10.1806	
5.81729	15.9841	12.6787	-0.0221909	-10.1668	
5.84496	15.9426	12.7267	-0.0221909	-10.0976	
5.84496	15.9703	12.7198	-0.0234125	-10.1253	
5.80345	15.908	12.7541	-0.0273826	-10.1046	
5.79654	15.8734	12.7404	-0.0264664	-10.0769	
5.82421	15.8527	12.7335	-0.027688	-10.0285	
5.85187	15.7697	12.7609	-0.029215	-9.91784	
5.83112	15.7421	12.7541	-0.0313527	-9.91093	
5.84496	15.7559	12.7678	-0.0310474	-9.91093	
5.81729	15.7075	12.7609	-0.0310474	-9.89019	
5.88646	15.6383	12.7609	-0.0298258	-9.75186	
5.83112	15.6383	12.7472	-0.0295204	-9.8072	
5.85187	15.6107	12.8158	-0.0258556	-9.75879	
5.87954	15.6037	12.8089	-0.0258556	-9.7242	
5.87262	15.6037	12.8158	-0.0252448	-9.73112	
5.83804	15.6037	12.8089	-0.026161	-9.7657	
5.83804	15.6314	12.8364	-0.0243286	-9.79337	
5.82421	15.5692	12.8912	-0.0224963	-9.74496	
5.83804	15.5692	12.8775	-0.0221909	-9.73113	
5.80345	15.5761	12.8981	-0.0209693	-9.77263	
5.85879	15.5277	12.9255	-0.0215801	-9.66888	
5.83112	15.4931	12.9529	-0.0224963	-9.66197	
5.83112	15.5138	13.0078	-0.0188315	-9.68272	
5.74812	15.5277	12.9941	-0.0218855	-9.77956	
5.76887	15.4723	13.0284	-0.0212747	-9.70348	
5.76887	15.4516	13.0832	-0.0234125	-9.68273	
5.72045	15.4309	13.0901	-0.0212747	-9.71041	
5.72737	15.4447	13.0969	-0.0218855	-9.71732	
5.7827	15.4516	13.1449	-0.0194423	-9.6689	
5.7412	15.4309	13.1449	-0.0209693	-9.68966	
5.74812	15.4447	13.1792	-0.0218855	-9.69657	
5.76195	15.4585	13.2066	-0.0179153	-9.69657	
5.7412	15.4309	13.2615	-0.0228017	-9.68966	
5.79654	15.4447	13.2752	-0.0215801	-9.64815	
5.82421	15.4378	13.3301	-0.0243286	-9.61357	
5.83112	15.3755	13.3644	-0.026161	-9.54441	
5.85187	15.3755	13.3712	-0.0267718	-9.52366	
5.87954	15.3894	13.4055	-0.0270772	-9.50982	
5.92796	15.3479	13.3918	-0.027688	-9.41991	
5.89338	15.3479	13.4261	-0.0301312	-9.45449	
5.96255	15.3271	13.4124	-0.0304366	-9.36457	
6.01097	15.3271	13.4055	-0.0325743	-9.31615	
6.01097	15.3202	13.4741	-0.0325743	-9.30924	
6.04555	15.2649	13.4604	-0.0337959	-9.21933	
6.09397	15.3617	13.4946	-0.0334905	-9.26773	
6.10089	15.3479	13.5769	-0.0334905	-9.24698	
6.11472	15.3202	13.5152	-0.0341013	-9.20548	
6.10781	15.3755	13.5495	-0.0353229	-9.26772	
6.12856	15.4101	13.5358	-0.0356283	-9.28155	
6.12164	15.4101	13.5426	-0.0350175	-9.28847	
6.08014	15.3824	13.5289	-0.0353229	-9.30231	
6.10089	15.4654	13.5289	-0.0368499	-9.36454	
6.11472	15.5553	13.5564	-0.0380715	-9.44061	
6.10089	15.5692	13.5906	-0.04082	-9.46828	
6.08014	15.583	13.5701	-0.0435686	-9.50286	
6.0663	15.6591	13.5906	-0.0429578	-9.59276	
6.05247	15.6867	13.5632	-0.043874	-9.63426	
5.99022	15.7213	13.6455	-0.0466225	-9.73109	
5.97638	15.7351	13.6112	-0.043874	-9.75876	
5.9833	15.7974	13.6455	-0.0441794	-9.81408	
5.94871	15.8181	13.6729	-0.0447902	-9.86941	
5.92796	15.8804	13.6455	-0.0450956	-9.9524	
5.9418	15.9219	13.6729	-0.0441794	-9.98006	
5.96255	15.9703	13.6318	-0.0466225	-10.0077	
5.9418	15.9841	13.6181	-0.0481495	-10.0423	
5.97638	15.991	13.6455	-0.0490657	-10.0146	
5.95563	16.0325	13.6866	-0.0518143	-10.0769	
5.89338	16.0878	13.6455	-0.0505927	-10.1945	
5.92796	16.1086	13.6729	-0.0484549	-10.1806	
5.91413	16.1017	13.6798	-0.0487603	-10.1875	
5.92104	16.1432	13.7004	-0.0466225	-10.2221	
5.85879	16.1501	13.7004	-0.04082	-10.2913	
5.81729	16.1086	13.6524	-0.0383768	-10.2913	
5.80345	16.1432	13.7072	-0.0365445	-10.3397	
5.77579	16.1708	13.6661	-0.0331851	-10.395	
5.76887	16.1293	13.6386	-0.0325743	-10.3605	
5.75503	16.1086	13.6044	-0.030742	-10.3535	
5.75503	16.0878	13.6249	-0.0328797	-10.3328	
5.71353	16.0463	13.5906	-0.0316581	-10.3328	
5.67895	16.0325	13.5152	-0.0334905	-10.3536	
5.6997	16.0394	13.4604	-0.030742	-10.3397	
5.7412	16.0602	13.4672	-0.0310474	-10.319	
5.72045	16.0394	13.4398	-0.0295204	-10.319	
5.66511	16.0394	13.3918	-0.0322689	-10.3743	
5.71353	16.0256	13.3712	-0.0270772	-10.3121	
5.72737	16.0809	13.3986	-0.024634	-10.3535	
5.70661	16.0671	13.2752	-0.024634	-10.3605	
5.71353	16.0325	13.3369	-0.0203585	-10.319	
5.6997	16.0602	13.2615	-0.0163884	-10.3605	
5.6997	16.1432	13.2135	-0.0163884	-10.4435	
5.64436	16.1155	13.2341	-0.0142506	-10.4711	
5.68586	16.0878	13.2478	-0.00997504	-10.402	
5.64436	16.1432	13.1998	-0.0118074	-10.4988	
5.62361	16.1224	13.1724	-0.0127236	-10.4988	
5.65128	16.0947	13.1244	-0.0111966	-10.4435	
5.65819	16.157	13.1244	-0.011502	-10.4988	
5.64436	16.2192	13.0969	-0.00997504	-10.5749	
5.62361	16.1777	13.0832	-0.00936425	-10.5541	
5.65128	16.1916	13.1038	-0.00844806	-10.5403	
5.65819	16.2192	13.0626	-0.00905886	-10.561	
5.63744	16.1985	12.9872	-0.0105858	-10.561	
5.70661	16.2538	13.0352	-0.00875346	-10.5472	
5.63053	16.2261	13.0284	-0.00875346	-10.5956	
5.69278	16.2331	13.0147	-0.00814267	-10.5403	
5.6997	16.2331	12.9872	-0.00936425	-10.5334	
5.72737	16.2469	12.9461	-0.00783727	-10.5195	
5.74812	16.2884	12.8844	-0.0056995	-10.5403	
5.76195	16.2745	12.9255	-0.00661569	-10.5126	
5.77579	16.24	12.8707	-0.00447792	-10.4642	
5.82421	16.2607	12.8775	-0.00447792	-10.4365	
5.80345	16.2676	12.8638	-0.00356173	-10.4642	
5.76887	16.2676	12.8432	-0.00417252	-10.4988	
5.74812	16.2884	12.8707	-0.00264555	-10.5403	
5.82421	16.2745	12.8432	-0.00234015	-10.4503	
5.79654	16.2745	12.8569	-0.00172936	-10.478	
5.79654	16.2815	12.8227	-0.00234015	-10.4849	
5.77579	16.2884	12.7815	-0.00295094	-10.5126	
5.84496	16.2953	12.7815	-0.00478332	-10.4503	
5.83112	16.2815	12.7678	-0.00447792	-10.4503	
5.83112	16.2607	12.7884	-0.00295094	-10.4296	
5.83804	16.2192	12.8021	-0.00325634	-10.3812	
5.82421	16.2538	12.8295	-0.00264555	-10.4296	
5.89338	16.2192	12.7678	-0.00172936	-10.3258	
5.83112	16.2469	12.8158	0.0013246	-10.4158	
5.83804	16.1708	12.8089	-0.00142396	-10.3328	
5.84496	16.1639	12.8021	0.0010192	-10.3189	
5.82421	16.1155	12.8158	0.0010192	-10.2913	
5.82421	16.0118	12.7747	-0.00142396	-10.1876	
5.81037	16.0602	12.7952	-0.00172936	-10.2498	
5.81729	16.0118	12.7747	-0.00264555	-10.1945	
5.81729	15.9288	12.8021	-0.00142396	-10.1115	
5.81729	15.9979	12.8432	-0.00203475	-10.1806	
5.85879	15.8942	12.8089	-0.00417252	-10.0354	
5.82421	15.832	12.7747	-0.00539411	-10.0078	
5.82421	15.8181	12.8364	-0.00264555	-9.99392	
5.88646	15.7766	12.8021	-0.00386713	-9.89017	
5.84496	15.7835	12.7952	-0.00508871	-9.93859	
5.85187	15.7144	12.7747	-0.00417252	-9.86252	
5.92104	15.6936	12.8089	-0.00356173	-9.7726	
5.84496	15.666	12.8295	-0.00325634	-9.82103	
5.92104	15.666	12.7884	-0.00386713	-9.74494	
5.87954	15.6176	12.8432	-0.00172936	-9.73803	
5.87954	15.6591	12.8707	-0.00295094	-9.77953	
5.93488	15.6314	12.8364	-0.00142396	-9.69653	
5.91413	15.5968	12.8844	-0.00203475	-9.6827	
5.88646	15.5899	12.9049	-0.00264555	-9.70345	
5.91413	15.5899	12.8775	-0.000813171	-9.67578	
5.92796	15.5553	12.8844	-0.00295094	-9.62737	
5.85187	15.5553	12.9255	-0.00234015	-9.70346	
5.87954	15.5622	12.9667	-0.000202379	-9.68271	
5.88646	15.5	12.9735	-0.00142396	-9.61355	
5.89338	15.4585	13.0078	-0.00111857	-9.56514	
5.93488	15.4447	13.0147	-0.00142396	-9.50981	
5.85879	15.4239	13.0901	-0.00203475	-9.56515	
5.87262	15.4516	13.1244	-0.00234015	-9.57898	
5.88646	15.4654	13.1312	-0.00264555	-9.57897	
5.91413	15.4516	13.1381	-0.00295094	-9.53747	
5.90721	15.4654	13.1586	-0.00295094	-9.55822	
5.90721	15.4309	13.2272	-0.00386713	-9.52364	
5.88646	15.4585	13.2409	-0.00478332	-9.57206	
5.94871	15.3824	13.2546	-0.0056995	-9.43373	
5.9833	15.4654	13.2958	-0.00844806	-9.48213	
5.96255	15.3963	13.3644	-0.00875346	-9.43373	
5.94871	15.417	13.3164	-0.00722648	-9.46831	
6.05247	15.3617	13.3849	-0.00875346	-9.30923	
6.09397	15.3617	13.3849	-0.00936425	-9.26773	
6.07322	15.3548	13.3781	-0.00783727	-9.28156	
6.14239	15.3894	13.4329	-0.00905886	-9.24697	
6.19773	15.3548	13.3918	-0.00997504	-9.15705	
6.23232	15.3617	13.4466	-0.00875346	-9.12938	
6.2669	15.3133	13.4741	-0.00905886	-9.04639	
6.21156	15.3617	13.4741	-0.00966965	-9.15014	
6.3084	15.3824	13.4809	-0.0121128	-9.07404	
6.30149	15.3755	13.4809	-0.0102804	-9.07404	
6.27382	15.4239	13.4741	-0.0105858	-9.15012	
6.23923	15.3548	13.5564	-0.0111966	-9.11555	
6.25998	15.4516	13.5221	-0.0127236	-9.19162	
6.23923	15.4793	13.5426	-0.013029	-9.24003	
6.25998	15.5	13.5426	-0.014556	-9.24003	
6.23232	15.5622	13.5564	-0.0173045	-9.32993	
6.25307	15.5968	13.5426	-0.0173045	-9.34376	
6.23923	15.6452	13.5975	-0.0200531	-9.406	
6.13548	15.666	13.5701	-0.0212747	-9.53051	
6.13548	15.7075	13.5906	-0.0237179	-9.572	
6.10781	15.7421	13.6318	-0.0243286	-9.63425	
6.0663	15.7974	13.6249	-0.0289096	-9.73107	
6.03864	15.8043	13.6181	-0.030742	-9.76566	
6.0248	15.8596	13.6112	-0.0328797	-9.83482	
5.97638	15.8804	13.6112	-0.0344067	-9.90398	
5.97638	15.9426	13.6044	-0.0368499	-9.96622	
5.99713	15.9703	13.6112	-0.0371553	-9.97313	
5.95563	16.0048	13.6592	-0.0365445	-10.0492	
5.9418	16.0394	13.6112	-0.0380715	-10.0976	
5.94871	16.0671	13.6592	-0.0389876	-10.1184	
5.90721	16.0671	13.6044	-0.0395984	-10.1599	
5.89338	16.1017	13.6866	-0.0362391	-10.2083	
5.84496	16.1293	13.6386	-0.0325743	-10.2844	
5.83112	16.157	13.6181	-0.029215	-10.3259	
5.7827	16.1086	13.6318	-0.024634	-10.3259	
5.77579	16.0947	13.6181	-0.0200531	-10.319	
5.67895	16.1086	13.6455	-0.0188315	-10.4296	
5.65819	16.0187	13.5838	-0.0191369	-10.3605	
5.59594	16.074	13.6386	-0.0154722	-10.4781	
5.56135	16.0878	13.5152	-0.0148614	-10.5265	
5.52677	16.0048	13.5084	-0.0136398	-10.4781	
5.48527	16.0533	13.4809	-0.014556	-10.568	
5.51293	15.991	13.3986	-0.0127236	-10.4781	
5.49218	15.9772	13.4055	-0.0124182	-10.485	
5.42301	15.9495	13.3506	-0.013029	-10.5265	
5.49218	15.9288	13.2409	-0.0118074	-10.4366	
5.4991	15.9011	13.2409	-0.00631029	-10.402	
5.49218	15.9288	13.1998	-0.00661569	-10.4366	
5.43685	15.8873	13.1038	-0.00722648	-10.4504	
5.47835	15.9011	13.1312	-0.00539411	-10.4228	
5.45068	15.9011	13.0764	-0.00478332	-10.4504	
5.44376	15.8596	13.0215	-0.00111857	-10.4159	
5.40226	15.908	13.0147	0.00773791	-10.5058	
5.39534	15.8596	12.9392	0.0159836	-10.4643	
5.36076	15.8873	12.8981	0.0254509	-10.5265	
5.2985	15.8734	12.8844	0.0330858	-10.5749	
5.24317	15.8665	12.8569	0.0443854	-10.6234	
5.11866	15.8734	12.8158	0.0550743	-10.7548	
5.07024	15.8389	12.7747	0.0675955	-10.7686	
4.88348	15.8389	12.7747	0.0657631	-10.9554	
4.7728	15.832	12.7404	0.0648469	-11.0592	
4.71055	15.825	12.7404	0.0724818	-11.1145	
4.75897	15.749	12.6718	0.0746196	-10.99	
4.60679	15.7351	12.6512	0.0917217	-11.1283	
4.4477	15.7006	12.5895	0.105465	-11.2529	
4.31627	15.6936	12.5347	0.108213	-11.3774	
4.21943	15.666	12.4867	0.110351	-11.4465	
4.2471	15.6522	12.4592	0.117986	-11.4051	
4.15718	15.6245	12.4798	0.13631	-11.4673	
4.24018	15.5899	12.4112	0.151885	-11.3497	
4.15026	15.5415	12.3495	0.16746	-11.3912	
4.17101	15.5	12.2878	0.176927	-11.329	
4.21252	15.4931	12.2878	0.201359	-11.2806	
4.30244	15.417	12.2535	0.238006	-11.1146	
4.44078	15.3963	12.2055	0.265797	-10.9555	
4.61371	15.3202	12.1712	0.29878	-10.7065	
4.73822	15.3064	12.1438	0.308858	-10.5682	
4.94573	15.1888	12.1095	0.336955	-10.2431	
5.257	15.1611	12.089	0.22915	-9.90415	
5.40918	15.1266	11.9724	0.290534	-9.71739	
5.7412	15.009	11.9655	0.283816	-9.26781	
5.85879	14.9744	11.9861	0.403531	-9.11564	
5.99713	14.9191	11.9244	0.447508	-8.92197	
6.31532	14.7393	11.9381	0.390704	-8.42398	
6.5505	14.7393	11.8832	0.41086	-8.1888	
6.79952	14.7324	11.8352	0.427962	-7.93287	
7.02778	14.6632	11.8147	0.481101	-7.63545	
7.17996	14.5388	11.801	0.522635	-7.35879	
7.42898	14.4488	11.7872	0.478353	-7.01987	
7.54657	14.3866	11.7735	0.501257	-6.84004	
7.68491	14.3313	11.6775	0.499425	-6.64638	
7.96159	14.2206	11.6707	0.527521	-6.25904	
7.98926	14.1446	11.6707	0.529354	-6.1553	
7.94776	14.1169	11.6844	0.521414	-6.16914	
7.90626	14.0132	11.6638	0.536683	-6.10691	
7.7195	13.9025	11.5952	0.509198	-6.18303	
7.56732	13.8195	11.5472	0.54218	-6.25222	
7.64341	13.778	11.5267	0.546151	-6.13464	
7.69183	13.6881	11.5267	0.501257	-5.99631	
7.72641	13.619	11.5267	0.468275	-5.89257	
7.62266	13.5222	11.4924	0.482018	-5.89951	
7.65724	13.4392	11.4992	0.543402	-5.78194	
7.75408	13.4046	11.4855	0.535156	-5.65052	
7.74716	13.3631	11.4375	0.556839	-5.61595	
7.77483	13.3147	11.417	0.5263	-5.53987	
7.83709	13.287	11.4101	0.510725	-5.44995	
7.80942	13.2179	11.3964	0.512252	-5.40847	
7.81634	13.1556	11.417	0.512252	-5.33931	
7.88551	13.1142	11.4307	0.508587	-5.22865	
7.85092	13.0381	11.4101	0.529048	-5.18716	
7.91318	12.9758	11.4101	0.524773	-5.06267	
7.83709	12.9274	11.4444	0.480185	-5.09035	
7.88551	12.8583	11.4101	0.534851	-4.97277	
7.93393	12.7822	11.4375	0.545845	-4.84828	
7.92701	12.7338	11.4924	0.514389	-4.80679	
7.85784	12.6854	11.4992	0.49179	-4.82755	
7.82325	12.6162	11.4855	0.548288	-4.79298	
7.95468	12.5817	11.4855	0.535156	-4.62698	
7.93393	12.4918	11.4787	0.53424	-4.55783	
7.97543	12.4987	11.4924	0.553175	-4.52324	
7.98926	12.4019	11.513	0.508587	-4.41259	
7.93393	12.4019	11.5472	0.542486	-4.46793	
8.11377	12.3396	11.4992	0.549205	-4.22584	
8.09302	12.3327	11.5541	0.546761	-4.23968	
8.19678	12.2013	11.6158	0.528743	-4.00453	
8.32129	12.1736	11.6021	0.538821	-3.85236	
8.25211	12.1183	11.561	0.532102	-3.8662	
8.35587	12.1045	11.6295	0.522635	-3.74861	
8.42504	12.0561	11.561	0.510419	-3.63103	
8.45963	12.0492	11.5678	0.543097	-3.58953	
8.50805	11.9454	11.6227	0.522024	-3.43738	
8.50113	11.9454	11.6432	0.54218	-3.4443	
8.59105	11.9178	11.6021	0.518054	-3.32671	
8.67406	11.8694	11.6295	0.520192	-3.1953	
8.61872	11.8209	11.6432	0.503701	-3.20223	
8.66714	11.8348	11.6227	0.504006	-3.16764	
8.68789	11.8555	11.5884	0.508282	-3.16763	
8.71556	11.8763	11.6364	0.49179	-3.16071	
8.71556	11.8624	11.6707	0.533324	-3.14688	
8.72248	11.8832	11.6844	0.467359	-3.16071	
8.75015	11.8901	11.6707	0.511946	-3.13996	
8.7709	11.897	11.705	0.470718	-3.12612	
8.84007	11.8832	11.7118	0.490874	-3.04312	
8.91616	11.9593	11.7118	0.492096	-3.0431	
8.89541	11.9662	11.7118	0.523246	-3.07077	
8.92999	12.0561	11.6775	0.497898	-3.12608	
8.92999	12.0976	11.6707	0.473772	-3.16758	
8.95766	12.1391	11.6775	0.47591	-3.1814	
8.99225	12.0907	11.705	0.497287	-3.09841	
9.03375	12.1875	11.7255	0.533324	-3.15372	
9.10292	12.2359	11.7324	0.462167	-3.13296	
9.07525	12.2843	11.7255	0.466137	-3.20904	
9.14442	12.2981	11.7735	0.431627	-3.1537	
9.16517	12.3604	11.7461	0.454227	-3.19519	
9.16517	12.4088	11.7392	0.477131	-3.24359	
9.14442	12.4226	11.7667	0.45728	-3.27818	
9.2551	12.4572	11.7598	0.446897	-3.20208	
9.2966	12.5125	11.7804	0.415441	-3.2159	
9.20668	12.5402	11.7941	0.463999	-3.33349	
9.22051	12.554	11.8352	0.465221	-3.33348	
9.27585	12.5471	11.8078	0.470718	-3.27123	
9.22051	12.5332	11.8284	0.44537	-3.31274	
9.28968	12.6162	11.8147	0.398644	-3.32655	
9.3381	12.5471	11.8078	0.390704	-3.20898	
9.28276	12.6162	11.8558	0.429184	-3.33347	
9.34502	12.5886	11.8284	0.41422	-3.24355	
9.36577	12.5747	11.7872	0.424298	-3.20897	
9.38652	12.5955	11.8078	0.404142	-3.20897	
9.44186	12.6024	11.7804	0.403836	-3.16054	
9.40036	12.554	11.7804	0.41086	-3.15364	
9.54562	12.5886	11.7392	0.3678	-3.04296	
9.53178	12.5747	11.7461	0.433765	-3.04296	
9.54562	12.5402	11.7392	0.414525	-2.99455	
9.55945	12.554	11.7187	0.41086	-2.99454	
9.57328	12.5678	11.6912	0.370853	-2.99454	
9.5387	12.5609	11.6844	0.360165	-3.02221	
9.54562	12.5886	11.6638	0.374213	-3.04296	
9.46953	12.5817	11.6775	0.391926	-3.11213	
9.46953	12.6231	11.6844	0.330847	-3.15362	
9.50411	12.6301	11.7118	0.329014	-3.12595	
9.53178	12.637	11.7187	0.367494	-3.1052	
9.51103	12.6646	11.6707	0.357111	-3.15361	
9.50411	12.6301	11.7118	0.399866	-3.12595	
9.49028	12.6716	11.705	0.376351	-3.18128	
9.46261	12.6992	11.7187	0.336649	-3.23661	
9.45569	12.6923	11.7255	0.339703	-3.23661	
9.45569	12.6854	11.7187	0.332374	-3.2297	
9.51795	12.7061	11.6501	0.364135	-3.18819	
9.52486	12.7753	11.7324	0.328403	-3.25043	
9.56637	12.7684	11.7118	0.337871	-3.20201	
9.53178	12.796	11.7324	0.34856	-3.26426	
9.5387	12.796	11.6912	0.332374	-3.25734	
9.57328	12.796	11.7735	0.293588	-3.22275	
9.60095	12.8306	11.7187	0.296642	-3.22966	
9.60095	12.8375	11.7324	0.309774	-3.23658	
9.6217	12.8929	11.753	0.312217	-3.27115	
9.5802	12.8929	11.7461	0.294505	-3.31265	
9.5802	12.879	11.753	0.260911	-3.29882	
9.60787	12.9482	11.8421	0.297253	-3.34031	
9.58712	13.0035	11.801	0.303056	-3.41639	
9.60095	12.9758	11.7872	0.293588	-3.37489	
9.69087	12.9828	11.8147	0.270378	-3.29188	
9.60095	13.0243	11.8627	0.259384	-3.4233	
9.62862	13.045	11.8421	0.268546	-3.41638	
9.5802	13.045	11.8901	0.250833	-3.4648	
9.62862	13.0865	11.8627	0.274654	-3.45787	
9.72546	13.1142	11.897	0.268546	-3.38869	
9.79463	13.1072	11.9107	0.249306	-3.31261	
9.77388	13.0657	11.8901	0.250833	-3.29186	
9.75313	13.1003	11.9861	0.256635	-3.34719	
9.82922	13.1349	11.9998	0.262133	-3.30568	
9.80155	13.1003	12.0067	0.252665	-3.29877	
9.73238	13.1349	12.0204	0.242282	-3.40252	
9.74621	13.1003	12.0204	0.221515	-3.35411	
9.80155	13.0934	12.0684	0.223347	-3.29186	
9.80847	13.0796	12.0615	0.206245	-3.27111	
9.74621	13.0243	12.1164	0.213575	-3.27804	
9.82922	13.0865	12.1507	0.214796	-3.25727	
9.79463	13.0727	12.1575	0.192502	-3.27803	
9.81538	13.0312	12.1575	0.18334	-3.21578	
9.80847	13.0173	12.2055	0.173873	-3.20887	
9.87072	13.0035	12.2192	0.178149	-3.13278	
9.87764	13.045	12.2398	0.179981	-3.16736	
9.87764	13.0312	12.2741	0.166849	-3.15353	
9.84997	13.0035	12.2672	0.154633	-3.15354	
9.92606	12.9343	12.2947	0.153717	-3.00829	
9.93297	12.9482	12.3221	0.139974	-3.01521	
9.91914	12.9274	12.3769	0.150663	-3.00829	
9.89839	12.9343	12.3564	0.157687	-3.03596	
9.84305	12.9274	12.3838	0.137837	-3.08438	
9.87764	12.9551	12.3769	0.126842	-3.07746	
9.88455	12.9689	12.4729	0.12501	-3.08437	
9.87764	12.9551	12.5278	0.126842	-3.07746	
9.8223	12.9136	12.4935	0.123788	-3.0913	
9.84305	12.962	12.5278	0.121651	-3.11896	
9.83613	12.9413	12.5895	0.116153	-3.10513	
9.80155	12.9689	12.6581	0.112794	-3.16738	
9.02683	12.8929	12.6512	0.0529365	-3.86602	
8.34204	12.9413	12.6924	0.0263671	-4.59923	
7.59499	12.8721	12.7061	0.000713808	-5.27712	
7.62957	12.8652	12.7541	-0.0524251	-5.23562	
7.17304	12.8306	12.7747	-0.0533412	-5.65757	
6.65426	12.8514	12.8295	-0.0976236	-6.1971	
6.7096	12.8306	12.8432	-0.127552	-6.12102	
6.59892	12.8237	12.8638	-0.206345	-6.22478	
6.84794	12.7753	12.8775	-0.251238	-5.92735	
6.8341	12.7891	12.8775	-0.222836	-5.95502	
6.75802	12.7615	12.9529	-0.227111	-6.00344	
6.64043	12.7684	12.9667	-0.223141	-6.12795	
6.73035	12.7269	12.9255	-0.216728	-5.99653	
6.81335	12.6716	12.9667	-0.202374	-5.85821	
6.73035	12.6716	12.9461	-0.20665	-5.94121	
6.79952	12.6508	12.9804	-0.213979	-5.85129	
6.81335	12.6024	12.9461	-0.203291	-5.78905	
6.94478	12.6093	12.9735	-0.224974	-5.66454	
6.89636	12.5886	12.9392	-0.193823	-5.69221	
6.81335	12.6024	12.9598	-0.216423	-5.78905	
6.75802	12.6162	12.9187	-0.205123	-5.85822	
6.75802	12.5886	12.9735	-0.211536	-5.83056	
6.86869	12.5747	12.9735	-0.21856	-5.70605	
6.88252	12.5955	12.9804	-0.184967	-5.71296	
6.88252	12.6301	13.0078	-0.207566	-5.74754	
6.84102	12.6162	13.0215	-0.235663	-5.77521	
6.79952	12.6301	13.0009	-0.20665	-5.83055	
6.84794	12.6508	12.9667	-0.21856	-5.80287	
6.7511	12.6923	12.9667	-0.184967	-5.94121	
6.71651	12.7476	12.9598	-0.175194	-6.03112	
6.84794	12.72	12.9667	-0.237495	-5.87203	
6.7926	12.7476	12.9735	-0.256429	-5.95503	
6.7926	12.8652	12.9255	-0.231082	-6.07259	
6.81335	12.8652	12.9049	-0.220698	-6.05184	
6.84102	12.9551	12.8981	-0.207261	-6.11407	
6.79952	13.0035	12.8707	-0.223752	-6.20398	
6.82719	13.0796	12.8569	-0.240243	-6.25239	
6.81335	13.0796	12.8707	-0.264064	-6.26622	
6.84794	13.1487	12.8364	-0.247573	-6.30079	
6.88944	13.1695	12.7884	-0.221004	-6.28004	
6.85486	13.2594	12.7747	-0.199015	-6.40452	
6.86177	13.3078	12.7609	-0.204512	-6.44601	
6.88944	13.3977	12.7335	-0.242381	-6.50825	
6.94478	13.4254	12.6787	-0.23383	-6.48057	
6.86869	13.4876	12.6992	-0.197183	-6.6189	
6.97245	13.5222	12.6581	-0.247878	-6.54972	
6.95861	13.5637	12.6169	-0.249405	-6.60505	
6.93094	13.6121	12.6032	-0.203901	-6.68113	
6.97936	13.6466	12.5964	-0.230165	-6.66728	
6.97245	13.6397	12.5964	-0.277196	-6.66729	
6.9517	13.6812	12.5758	-0.245741	-6.72953	
6.88252	13.7158	12.5278	-0.24513	-6.83328	
6.91711	13.7642	12.5347	-0.210009	-6.8471	
6.94478	13.7296	12.4935	-0.228944	-6.78486	
6.92403	13.778	12.4112	-0.220698	-6.85402	
6.96553	13.778	12.4867	-0.244214	-6.81251	
6.85486	13.7988	12.3564	-0.264981	-6.94393	
6.85486	13.785	12.3084	-0.25307	-6.9301	
6.92403	13.7988	12.3289	-0.211536	-6.87476	
6.88944	13.8403	12.2535	-0.201764	-6.95084	
6.88252	13.7988	12.2329	-0.196266	-6.91627	
6.90328	13.785	12.1301	-0.266813	-6.88168	
6.91019	13.8195	12.1301	-0.259178	-6.90934	
6.91019	13.861	12.1027	-0.243603	-6.95084	
6.93094	13.8679	12.0684	-0.2604	-6.937	
6.87561	13.8679	11.9998	-0.217339	-6.99234	
6.87561	13.9094	11.9587	-0.21856	-7.03383	
6.78568	13.8956	11.8901	-0.181607	-7.10992	
6.77185	13.9233	11.849	-0.224974	-7.15142	
6.73035	13.9233	11.849	-0.228638	-7.19292	
6.74418	13.9855	11.753	-0.233525	-7.24133	
6.78568	13.9578	11.705	-0.276586	-7.17216	
6.61967	13.9648	11.7118	-0.171835	-7.34509	
6.71651	14.0063	11.7187	-0.232609	-7.28974	
6.67501	14.0201	11.657	-0.232914	-7.34508	
6.68884	14.0063	11.5678	-0.242076	-7.31741	
6.63351	14.0339	11.609	-0.238716	-7.40041	
6.64043	14.0892	11.561	-0.206955	-7.44882	
6.62659	14.0201	11.4787	-0.203596	-7.3935	
6.57125	14.0685	11.5267	-0.183134	-7.49724	
6.59201	14.0547	11.4307	-0.211536	-7.46266	
6.65426	14.0892	11.4375	-0.263759	-7.43498	
6.52283	14.1031	11.3964	-0.235357	-7.58024	
6.57817	14.1169	11.3758	-0.205428	-7.53873	
6.45366	14.0892	11.3621	-0.201153	-7.63558	
6.52283	14.1653	11.321	-0.207566	-7.64248	
6.5505	14.1238	11.3004	-0.201458	-7.57332	
6.54359	14.1999	11.2935	-0.220393	-7.65631	
6.51592	14.1722	11.2867	-0.239633	-7.65631	
6.50208	14.2068	11.225	-0.221309	-7.70472	
6.45366	14.1999	11.2318	-0.198099	-7.74623	
6.50208	14.1722	11.2044	-0.214285	-7.67015	
6.509	14.2345	11.1564	-0.188021	-7.72547	
6.46058	14.2345	11.1495	-0.207871	-7.77389	
6.42599	14.2345	11.1015	-0.208177	-7.80847	
6.41216	14.276	11.1221	-0.218255	-7.8638	
6.35682	14.2276	11.129	-0.192296	-7.87073	
6.46058	14.2276	11.1084	-0.181913	-7.76697	
6.41908	14.2414	11.0398	-0.205734	-7.82231	
6.39833	14.2552	11.0535	-0.205428	-7.85689	
6.42599	14.2068	11.0261	-0.219171	-7.78081	
6.31532	14.2206	11.0467	-0.179775	-7.90532	
6.37757	14.2137	11.0398	-0.153511	-7.83615	
6.37066	14.1584	11.0467	-0.209398	-7.78774	
6.32224	14.1377	11.0398	-0.195045	-7.81541	
6.36374	14.1791	11.0535	-0.169086	-7.8154	
6.3084	14.1307	10.985	-0.132744	-7.82233	
6.32224	14.0616	11.033	-0.177637	-7.73934	
6.30149	14.0547	11.033	-0.162368	-7.75318	
6.28073	14.0132	11.0124	-0.193518	-7.73244	
6.28765	13.9648	11.0193	-0.203901	-7.67711	
6.2669	13.9578	11.0398	-0.175194	-7.69095	
6.30149	13.8749	11.0535	-0.18008	-7.57337	
6.3084	13.8818	11.0467	-0.167254	-7.57337	
6.25307	13.8334	11.0673	-0.174278	-7.5803	
6.2669	13.7988	11.0398	-0.197488	-7.53189	
6.28765	13.778	11.0398	-0.165116	-7.49039	
6.31532	13.7642	11.0947	-0.157481	-7.44889	
6.39141	13.702	11.0535	-0.171224	-7.31056	
6.32224	13.7158	11.0741	-0.179164	-7.39357	
6.34299	13.7296	11.0878	-0.156565	-7.38665	
6.25998	13.7227	11.0878	-0.14893	-7.46274	
6.30149	13.6466	11.1358	-0.166338	-7.34516	
6.34299	13.6674	11.129	-0.163895	-7.32441	
6.28765	13.6052	11.129	-0.154122	-7.3175	
6.28765	13.6397	11.1907	-0.128469	-7.35208	
6.30149	13.5775	11.1633	-0.14893	-7.27601	
6.27382	13.6052	11.1907	-0.170308	-7.33134	
6.30149	13.5567	11.225	-0.170919	-7.25526	
6.21848	13.5429	11.2661	-0.113199	-7.32443	
6.27382	13.4876	11.2593	-0.122361	-7.21377	
6.2669	13.4807	11.2661	-0.149846	-7.21377	
6.28765	13.4599	11.2593	-0.161451	-7.17228	
6.23923	13.453	11.3141	-0.155343	-7.21378	
6.2669	13.4668	11.3758	-0.134271	-7.19994	
6.1839	13.3977	11.3895	-0.141906	-7.21379	
6.29457	13.4046	11.4238	-0.164811	-7.11004	
6.35682	13.453	11.4512	-0.174889	-7.09619	
6.21848	13.3769	11.4924	-0.16023	-7.15846	
6.28765	13.3285	11.5198	-0.154733	-7.04088	
6.2669	13.3977	11.5335	-0.130301	-7.13079	
6.29457	13.3424	11.561	-0.142211	-7.0478	
6.2669	13.3078	11.561	-0.148625	-7.04089	
6.27382	13.3493	11.6021	-0.139463	-7.07546	
6.34991	13.3216	11.5952	-0.148319	-6.97171	
6.3084	13.294	11.6021	-0.151373	-6.98555	
6.39833	13.2801	11.6501	-0.167559	-6.8818	
6.40524	13.294	11.6638	-0.150152	-6.88871	
6.41216	13.2801	11.6912	-0.159314	-6.86796	
6.41908	13.2732	11.6981	-0.145265	-6.85413	
6.43983	13.3493	11.6981	-0.151068	-6.90945	
6.41908	13.3009	11.6912	-0.151373	-6.88179	
6.4675	13.2732	11.7324	-0.14099	-6.80571	
6.40524	13.3354	11.6912	-0.13366	-6.93021	
6.44675	13.3769	11.7392	-0.166643	-6.9302	
6.41216	13.4254	11.7392	-0.155954	-7.01319	
6.44675	13.4046	11.7461	-0.15687	-6.95786	
6.44675	13.4392	11.7804	-0.159924	-6.99244	
6.39141	13.536	11.7735	-0.137936	-7.14459	
6.44675	13.5775	11.7941	-0.151984	-7.13075	
6.36374	13.619	11.7667	-0.134271	-7.25525	
6.43291	13.6951	11.8147	-0.163284	-7.26215	
6.42599	13.6951	11.8147	-0.161146	-7.26906	
6.38449	13.7711	11.8078	-0.127247	-7.38664	
6.37757	13.7642	11.8421	-0.140379	-7.38664	
6.37066	13.8818	11.8078	-0.162368	-7.51112	
6.39833	13.9233	11.8558	-0.167865	-7.52494	
6.40524	14.0132	11.8284	-0.147098	-7.60793	
6.34991	14.0339	11.8352	-0.13702	-7.68401	
6.37066	14.0477	11.8764	-0.153206	-7.67709	
6.35682	14.1307	11.8627	-0.151068	-7.77391	
6.37066	14.1238	11.8558	-0.158092	-7.75316	
6.32915	14.1999	11.9107	-0.1529	-7.87074	
6.34991	14.2345	11.8901	-0.142517	-7.88456	
6.34991	14.2621	11.8695	-0.130912	-7.91222	
6.2669	14.2829	11.8695	-0.144044	-8.01598	
6.25307	14.3105	11.9107	-0.16023	-8.05747	
6.25307	14.3244	11.8901	-0.149541	-8.0713	
6.23232	14.3175	11.9175	-0.142822	-8.08514	
6.20465	14.3313	11.9107	-0.133355	-8.12664	
6.20465	14.3659	11.9381	-0.120834	-8.16122	
6.21848	14.3244	11.8832	-0.124498	-8.10589	
6.14931	14.3866	11.8627	-0.138852	-8.2373	
6.20465	14.3659	11.801	-0.158703	-8.16122	
6.19081	14.3659	11.849	-0.138852	-8.17505	
6.14931	14.352	11.8147	-0.140684	-8.20272	
6.15623	14.3105	11.7667	-0.144044	-8.15431	
6.13548	14.3728	11.753	-0.123277	-8.2373	
6.17698	14.352	11.6844	-0.133355	-8.17505	
6.16314	14.3589	11.6775	-0.150762	-8.1958	
6.20465	14.3589	11.7255	-0.154733	-8.1543	
6.16314	14.3866	11.6775	-0.124804	-8.22347	
6.14931	14.4765	11.6844	-0.108312	-8.3272	
6.1839	14.4558	11.6638	-0.118391	-8.27187	
6.17006	14.4627	11.6227	-0.135187	-8.29262	
6.20465	14.4903	11.5952	-0.163895	-8.2857	
6.13548	14.518	11.6021	-0.141906	-8.38253	
6.12856	14.4765	11.561	-0.115642	-8.34795	
6.14239	14.5042	11.5198	-0.11381	-8.36178	
6.14239	14.4973	11.4992	-0.127247	-8.35487	
6.10781	14.5388	11.6021	-0.138547	-8.43094	
6.14931	14.601	11.4512	-0.127858	-8.45168	
6.10089	14.5941	11.5541	-0.108312	-8.49319	
6.08706	14.6079	11.513	-0.104037	-8.52085	
6.11472	14.6217	11.5472	-0.124193	-8.50701	
6.08706	14.6978	11.5404	-0.13305	-8.61075	
6.08706	14.6701	11.4787	-0.134271	-8.58309	
6.08706	14.6978	11.4924	-0.115947	-8.61075	
6.0663	14.7324	11.4718	-0.102815	-8.66608	
6.10089	14.7116	11.4581	-0.116253	-8.61075	
6.12856	14.7186	11.4718	-0.126942	-8.59	
6.11472	14.7946	11.5061	-0.13366	-8.6799	
6.0663	14.7739	11.4581	-0.105564	-8.70758	
6.03172	14.8085	11.4101	-0.119307	-8.77674	
6.05939	14.8223	11.4238	-0.121444	-8.7629	
6.08014	14.8154	11.4512	-0.132744	-8.73523	
6.05939	14.8292	11.4375	-0.117474	-8.76982	
6.09397	14.8776	11.4512	-0.106785	-8.78364	
6.04555	14.8638	11.4992	-0.0970128	-8.81823	
6.08014	14.843	11.4718	-0.116558	-8.7629	
6.08014	14.9191	11.417	-0.122361	-8.83897	
6.0663	14.9053	11.417	-0.121444	-8.83897	
6.13548	14.8984	11.4581	-0.115642	-8.76288	
6.08014	14.8914	11.4787	-0.108618	-8.81131	
6.09397	14.9053	11.4375	-0.134271	-8.8113	
6.12164	14.9122	11.465	-0.124804	-8.79055	
6.08014	14.9399	11.4512	-0.124804	-8.85971	
6.12164	14.8914	11.4787	-0.108618	-8.7698	
6.09397	14.8638	11.5061	-0.103732	-8.76981	
6.08706	14.9122	11.4787	-0.112893	-8.82513	
6.09397	14.8914	11.5061	-0.107702	-8.79747	
6.07322	14.9053	11.5061	-0.112588	-8.83205	
6.0248	14.8223	11.5335	-0.10648	-8.79749	
6.07322	14.8223	11.5747	-0.103121	-8.74907	
6.04555	14.8085	11.513	-0.106175	-8.7629	
6.09397	14.7393	11.5472	-0.108312	-8.64533	
6.05939	14.7047	11.5815	-0.101594	-8.64534	
6.07322	14.7047	11.6364	-0.112893	-8.6315	
6.05939	14.6494	11.6158	-0.10648	-8.59001	
6.10089	14.6701	11.6707	-0.115031	-8.56926	
6.08706	14.6356	11.6432	-0.117474	-8.54851	
6.04555	14.6632	11.657	-0.111672	-8.61768	
6.11472	14.5872	11.6775	-0.107702	-8.47244	
6.11472	14.5526	11.7392	-0.115031	-8.43786	
6.04555	14.5457	11.7118	-0.11381	-8.50011	
6.13548	14.5733	11.7735	-0.11381	-8.43785	
6.05939	14.5595	11.7255	-0.104953	-8.50011	
6.05939	14.5733	11.8284	-0.10251	-8.51394	
6.03864	14.5526	11.8695	-0.105869	-8.51395	
6.08014	14.5388	11.8352	-0.11381	-8.45861	
6.08706	14.5595	11.849	-0.115031	-8.47244	
6.0663	14.5111	11.8627	-0.103426	-8.44479	
6.07322	14.5249	11.9518	-0.0954859	-8.4517	
6.08706	14.5526	11.9724	-0.103732	-8.46553	
6.07322	14.4973	11.9655	-0.106175	-8.42404	
6.10089	14.4696	11.9861	-0.107702	-8.36871	
6.01097	14.4627	12.0478	-0.104037	-8.45171	
6.08014	14.4903	12.137	-0.0909049	-8.4102	
6.05247	14.4419	12.1507	-0.0948751	-8.38946	
6.04555	14.435	12.1781	-0.0930427	-8.38947	
6.05939	14.435	12.1712	-0.103426	-8.37563	
6.04555	14.4074	12.3427	-0.104342	-8.3618	
6.05939	14.4074	12.2467	-0.101594	-8.34797	
6.10089	14.435	12.2947	-0.0991506	-8.33413	
6.0663	14.435	12.3152	-0.10251	-8.36871	
6.07322	14.4281	12.3564	-0.101288	-8.35488	
6.10089	14.435	12.4181	-0.100983	-8.33413	
6.05939	14.3728	12.4112	-0.097929	-8.31339	
6.05939	14.3866	12.4455	-0.0872402	-8.32722	
6.10089	14.3935	12.5689	-0.096402	-8.29264	
6.11472	14.3659	12.4935	-0.103121	-8.25114	
6.16314	14.3797	12.5484	-0.113199	-8.21655	
6.12164	14.4143	12.5621	-0.111061	-8.29263	
6.14931	14.3728	12.5827	-0.101288	-8.22347	
6.13548	14.352	12.6169	-0.0982344	-8.21656	
6.14931	14.352	12.6375	-0.105869	-8.20272	
6.20465	14.4004	12.6581	-0.100372	-8.19579	
6.1839	14.3866	12.6649	-0.104037	-8.20271	
6.2254	14.3659	12.6444	-0.104648	-8.14047	
6.2254	14.435	12.7198	-0.099456	-8.20962	
6.28073	14.3728	12.6718	-0.104648	-8.09204	
6.27382	14.4488	12.7061	-0.107091	-8.17503	
6.30149	14.4973	12.7472	-0.0970128	-8.19577	
6.27382	14.5526	12.7541	-0.112283	-8.27876	
6.28073	14.5872	12.7747	-0.109534	-8.30643	
6.31532	14.6425	12.8089	-0.100372	-8.32716	
6.25998	14.6563	12.8227	-0.0890725	-8.39633	
6.30149	14.6978	12.8295	-0.0976236	-8.39632	
6.2669	14.8154	12.8227	-0.108312	-8.54847	
6.25307	14.8776	12.8364	-0.109839	-8.62455	
6.27382	14.8984	12.8569	-0.107702	-8.62454	
6.23232	14.843	12.9187	-0.108923	-8.61072	
6.25998	14.9537	12.8707	-0.0967074	-8.6937	
6.17698	14.9606	12.9255	-0.110145	-8.78362	
6.1839	15.0643	12.9049	-0.108923	-8.88044	
6.20465	15.092	12.8638	-0.109229	-8.88735	
6.17006	15.175	12.9324	-0.110145	-9.00492	
6.20465	15.2026	12.9118	-0.11045	-8.998	
6.21156	15.2303	12.9392	-0.11045	-9.01874	
6.17006	15.2995	12.9461	-0.112893	-9.1294	
6.14239	15.341	12.9735	-0.117474	-9.19856	
6.15623	15.3479	13.0215	-0.112893	-9.19164	
6.11472	15.3824	12.9804	-0.10251	-9.26772	
6.12164	15.3548	13.0626	-0.107396	-9.23314	
6.0663	15.3617	13.0352	-0.104648	-9.2954	
6.08014	15.4378	13.0421	-0.0976236	-9.35763	
6.01788	15.4101	13.0421	-0.0942643	-9.39222	
6.00405	15.3894	13.0284	-0.0936535	-9.38531	
6.01788	15.3755	13.0284	-0.0985398	-9.35765	
5.96255	15.3824	12.9804	-0.10251	-9.4199	
5.94871	15.3824	12.9941	-0.107396	-9.43373	
5.93488	15.4032	12.9324	-0.0954859	-9.46831	
5.90721	15.3963	12.9187	-0.0927373	-9.48907	
5.94871	15.3686	12.9187	-0.0960966	-9.4199	
5.90721	15.3963	12.9118	-0.0902941	-9.48907	
5.87954	15.3755	12.8707	-0.0942643	-9.49599	
5.93488	15.3963	12.8364	-0.0875456	-9.4614	
5.90721	15.3548	12.7884	-0.0905995	-9.44757	
5.94871	15.4378	12.7472	-0.0909049	-9.48906	
5.92796	15.4723	12.7404	-0.0905995	-9.54439	
5.92104	15.4309	12.7404	-0.0783837	-9.50981	
5.86571	15.4239	12.7267	-0.073192	-9.55823	
5.90721	15.4378	12.6307	-0.0698326	-9.53056	
5.87954	15.5069	12.6581	-0.0750243	-9.62738	
5.85187	15.5138	12.6375	-0.0744135	-9.66197	
5.85879	15.4585	12.6581	-0.070138	-9.59973	
5.84496	15.5277	12.6238	-0.0603653	-9.68272	
5.83112	15.4931	12.6238	-0.0649463	-9.66197	
5.82421	15.5277	12.6169	-0.0680002	-9.70347	
5.86571	15.5761	12.5758	-0.0692218	-9.71037	
5.82421	15.5968	12.4867	-0.0634193	-9.77262	
5.81729	15.583	12.4798	-0.0606707	-9.76571	
5.80345	15.6107	12.5347	-0.0597546	-9.8072	
5.87262	15.6107	12.5209	-0.0658625	-9.73803	
5.86571	15.5968	12.4935	-0.0640301	-9.73112	
5.84496	15.6176	12.5209	-0.0609761	-9.77262	
5.83804	15.6591	12.4387	-0.057006	-9.82103	
5.86571	15.6798	12.5072	-0.0563952	-9.81411	
5.84496	15.6798	12.4592	-0.057006	-9.83486	
5.83112	15.6522	12.4661	-0.0545628	-9.82103	
5.85187	15.7006	12.4112	-0.0542574	-9.84869	
5.89338	15.7006	12.4249	-0.0548682	-9.80718	
5.87262	15.6936	12.4181	-0.0542574	-9.82102	
5.90029	15.7697	12.4112	-0.0512035	-9.86942	
5.92104	15.7213	12.3769	-0.0536466	-9.80026	
5.92104	15.7905	12.4044	-0.0524251	-9.86942	
5.91413	15.7351	12.3632	-0.0515089	-9.82101	
5.93488	15.7351	12.3495	-0.0542574	-9.80026	
5.90029	15.749	12.4044	-0.0527304	-9.84868	
5.95563	15.7213	12.3564	-0.0533412	-9.76568	
5.9418	15.7213	12.3564	-0.0505927	-9.77951	
5.93488	15.7144	12.3358	-0.0518143	-9.77951	
5.91413	15.7559	12.3564	-0.0573114	-9.84176	
5.96946	15.7628	12.3289	-0.0530358	-9.79334	
5.96255	15.7282	12.3564	-0.0512035	-9.76568	
5.91413	15.749	12.3564	-0.0487603	-9.83484	
5.92796	15.7213	12.3358	-0.0490657	-9.79335	
5.92104	15.6452	12.3427	-0.0444848	-9.72419	
5.88646	15.666	12.3975	-0.0472333	-9.77952	
5.88646	15.6383	12.3769	-0.0493711	-9.75186	
5.87262	15.6383	12.3769	-0.0478441	-9.7657	
5.89338	15.6107	12.3838	-0.0484549	-9.71728	
5.91413	15.5208	12.4181	-0.0463171	-9.60663	
5.86571	15.5208	12.4592	-0.0460117	-9.65505	
5.86571	15.5069	12.3632	-0.045401	-9.64122	
5.9833	15.4723	12.4524	-0.0463171	-9.48905	
5.86571	15.417	12.4181	-0.0505927	-9.55132	
5.85879	15.3894	12.4798	-0.0502873	-9.53057	
5.85187	15.3617	12.3907	-0.0484549	-9.50983	
5.90721	15.3479	12.4455	-0.0508981	-9.44066	
5.93488	15.2718	12.4455	-0.0487603	-9.33692	
5.92104	15.3133	12.4867	-0.0499819	-9.39225	
5.91413	15.3202	12.4729	-0.0502873	-9.40608	
5.87262	15.2718	12.5141	-0.0466225	-9.39917	
5.87954	15.2234	12.5141	-0.0450956	-9.34385	
5.85879	15.2649	12.5141	-0.0450956	-9.40609	
5.91413	15.2096	12.5758	-0.0426524	-9.29543	
5.84496	15.2511	12.5552	-0.0450956	-9.40609	
5.83112	15.2303	12.5964	-0.0469279	-9.39918	
5.95563	15.2372	12.6169	-0.0441794	-9.28159	
5.87954	15.2026	12.6444	-0.0441794	-9.3231	
5.81729	15.1681	12.6649	-0.0457063	-9.35078	
5.90029	15.1127	12.6855	-0.045401	-9.21245	
5.87954	15.1335	12.7609	-0.0450956	-9.25395	
5.88646	15.1266	12.7609	-0.045401	-9.24011	
5.83112	15.092	12.7952	-0.0450956	-9.26087	
5.84496	15.0989	12.8569	-0.0405146	-9.25395	
5.85879	15.092	12.8569	-0.042347	-9.2332	
5.87262	15.0712	12.8569	-0.039293	-9.19862	
5.81037	15.0643	12.9529	-0.0417362	-9.25396	
5.89338	15.0505	12.9049	-0.0383768	-9.15712	
5.84496	15.0574	13.0078	-0.0405146	-9.21246	
5.84496	15.0436	13.0147	-0.0414308	-9.19863	
5.87262	15.0782	13.0215	-0.0420416	-9.20554	
5.91413	15.0505	13.0695	-0.0450956	-9.13637	
5.92796	15.0159	13.0626	-0.0484549	-9.08796	
5.95563	15.0436	13.1586	-0.0508981	-9.08795	
5.96255	15.0159	13.1449	-0.053952	-9.05338	
6.0248	14.9813	13.1929	-0.0557844	-8.95654	
6.01097	15.0228	13.1861	-0.0560898	-9.01187	
6.0663	14.9744	13.2135	-0.0545628	-8.90813	
6.09397	14.9813	13.2478	-0.0573114	-8.88737	
6.07322	15.0021	13.2272	-0.0573114	-8.92887	
6.09397	14.9813	13.2752	-0.0536466	-8.88737	
6.16314	14.9952	13.2409	-0.0548682	-8.83203	
6.17006	14.9952	13.2615	-0.0560898	-8.82512	
6.15623	15.0021	13.2684	-0.0591438	-8.84587	
6.17006	15.0436	13.3095	-0.0588384	-8.87352	
6.20465	15.1127	13.2958	-0.0576168	-8.90809	
6.1839	15.0989	13.3164	-0.0573114	-8.91501	
6.12856	15.1266	13.3712	-0.0591438	-8.99801	
6.13548	15.175	13.3438	-0.0576168	-9.0395	
6.10089	15.2165	13.3712	-0.0628085	-9.11558	
6.10089	15.2649	13.3369	-0.0628085	-9.16399	
6.12856	15.3548	13.3918	-0.0634193	-9.22623	
6.12164	15.3617	13.3986	-0.0600599	-9.24006	
6.10089	15.3894	13.4124	-0.0625031	-9.28847	
6.09397	15.3824	13.4398	-0.0634193	-9.28847	
6.0663	15.4516	13.4261	-0.0707488	-9.3853	
6.01097	15.5415	13.4192	-0.0683056	-9.53054	
6.08706	15.5692	13.4398	-0.0692218	-9.48211	
6.05939	15.6245	13.4329	-0.0667787	-9.5651	
6.08706	15.666	13.4261	-0.0646409	-9.57893	
6.08014	15.6522	13.4329	-0.0673894	-9.57201	
6.08014	15.7421	13.4604	-0.068611	-9.66192	
6.11472	15.7905	13.4878	-0.0704434	-9.67574	
6.12164	15.7974	13.4878	-0.073192	-9.67574	
6.07322	15.8043	13.4878	-0.0692218	-9.73107	
6.03864	15.8804	13.5221	-0.0667787	-9.84173	
6.09397	15.8804	13.5221	-0.068611	-9.78639	
6.08706	15.9357	13.5632	-0.0646409	-9.84863	
6.01097	15.9426	13.5152	-0.0603653	-9.93164	
5.9833	15.908	13.5426	-0.0560898	-9.92473	
6.01097	15.9495	13.5632	-0.0515089	-9.93855	
5.90721	15.908	13.5015	-0.0524251	-10.0008	
5.92796	15.8734	13.5221	-0.0524251	-9.94549	
5.9418	15.9288	13.4672	-0.0530358	-9.98698	
5.85187	15.9011	13.4604	-0.0567006	-10.0492	
5.85879	15.9011	13.4741	-0.057006	-10.0423	
5.84496	15.908	13.4329	-0.055479	-10.0631	
5.90029	15.8942	13.3712	-0.0548682	-9.9939	
5.87262	15.8734	13.3506	-0.0576168	-10.0008	
5.81729	15.8804	13.3712	-0.0567006	-10.0631	
5.81729	15.8873	13.3164	-0.0557844	-10.07	
5.81729	15.8873	13.2958	-0.0530358	-10.07	
5.83804	15.9288	13.2546	-0.0508981	-10.0907	
5.82421	15.8804	13.2821	-0.0505927	-10.0562	
5.81729	15.9219	13.2272	-0.0505927	-10.1046	
5.81729	15.9357	13.2341	-0.0463171	-10.1184	
5.7827	15.9564	13.1655	-0.0447902	-10.1737	
5.77579	15.9634	13.1792	-0.04082	-10.1876	
5.7827	15.9703	13.1038	-0.0395984	-10.1876	
5.79654	15.9841	13.1381	-0.0380715	-10.1876	
5.73428	15.9564	13.0969	-0.0359337	-10.2222	
5.66511	15.9979	13.0764	-0.0322689	-10.3328	
5.72045	16.0878	13.0969	-0.0328797	-10.3674	
5.69278	16.0048	13.0352	-0.0322689	-10.3121	
5.78962	16.0118	13.0489	-0.0334905	-10.2221	
5.76195	16.0256	13.0421	-0.0331851	-10.2636	
5.79654	16.0878	13.0284	-0.0341013	-10.2913	
5.81037	16.0533	13.0284	-0.0347121	-10.2429	
5.7827	16.0947	13.0421	-0.0350175	-10.312	
5.80345	16.1017	13.0421	-0.0322689	-10.2982	
5.87262	16.1777	12.9941	-0.0313527	-10.3051	
5.83112	16.1432	12.9735	-0.0273826	-10.312	
5.87262	16.2054	12.9941	-0.0304366	-10.3328	
5.77579	16.2054	12.9461	-0.0289096	-10.4296	
5.85879	16.2261	12.9118	-0.0298258	-10.3674	
5.82421	16.2192	12.8981	-0.0286042	-10.395	
5.83804	16.2469	12.9255	-0.0286042	-10.4088	
5.84496	16.2469	12.9324	-0.0270772	-10.4019	
5.87262	16.2123	12.8775	-0.0255502	-10.3397	
5.86571	16.2815	12.9187	-0.0286042	-10.4158	
5.87954	16.2123	12.9049	-0.0267718	-10.3328	
5.83112	16.2607	12.8295	-0.0267718	-10.4296	
5.83804	16.2054	12.9324	-0.0295204	-10.3674	
5.86571	16.2676	12.8844	-0.0270772	-10.4019	
5.85187	16.2469	12.8569	-0.0304366	-10.395	
5.89338	16.2331	12.8638	-0.0322689	-10.3397	
5.85187	16.2261	12.8501	-0.0298258	-10.3743	
5.87954	16.2054	12.8569	-0.0301312	-10.3259	
5.90029	16.1846	12.8638	-0.0286042	-10.2844	
5.81729	16.2123	12.8569	-0.0237179	-10.395	
5.86571	16.2054	12.8707	-0.0228017	-10.3397	
5.84496	16.2331	12.9049	-0.0224963	-10.3881	
5.76195	16.1155	12.8775	-0.0228017	-10.3535	
5.84496	16.1432	12.9049	-0.0218855	-10.2982	
5.83804	16.1086	12.9461	-0.0234125	-10.2705	
5.80345	16.0256	12.9049	-0.0258556	-10.2221	
5.7827	15.9979	12.9255	-0.0237179	-10.2152	
5.79654	15.9979	12.9187	-0.0258556	-10.2014	
5.79654	15.9564	12.9255	-0.0286042	-10.1599	
5.81729	15.8804	12.9324	-0.0286042	-10.0631	
5.85187	15.8942	12.9804	-0.0279934	-10.0423	
5.85187	15.8389	12.9598	-0.0304366	-9.987	
5.85187	15.8665	12.9461	-0.0298258	-10.0147	
5.81729	15.7974	12.9324	-0.0298258	-9.98009	
5.87954	15.7835	13.0284	-0.0295204	-9.904	
5.84496	15.7213	13.0147	-0.0289096	-9.87635	
5.86571	15.7006	13.0078	-0.0282988	-9.83485	
5.92104	15.6798	13.0009	-0.0270772	-9.75877	
5.87954	15.7006	13.0215	-0.026161	-9.82102	
5.87262	15.6591	13.0421	-0.024634	-9.78644	
5.85187	15.6936	13.0626	-0.024634	-9.84177	
5.84496	15.666	13.0901	-0.0228017	-9.82103	
5.77579	15.6591	13.0901	-0.0231071	-9.88328	
5.82421	15.6452	13.0832	-0.0228017	-9.82103	
5.81037	15.6245	13.1655	-0.0212747	-9.81412	
5.7827	15.6798	13.1655	-0.0212747	-9.89711	
5.83112	15.6383	13.1518	-0.0224963	-9.8072	
5.78962	15.5553	13.2478	-0.0231071	-9.76571	
5.79654	15.5968	13.2409	-0.0228017	-9.80029	
5.75503	15.5899	13.2752	-0.0228017	-9.83488	
5.76195	15.5484	13.3232	-0.0209693	-9.78647	
5.78962	15.5484	13.2958	-0.0203585	-9.7588	
5.7412	15.5622	13.3301	-0.0218855	-9.82105	
5.78962	15.5138	13.3849	-0.0218855	-9.72422	
5.76887	15.5138	13.3849	-0.0234125	-9.74497	
5.78962	15.5692	13.4466	-0.0194423	-9.77955	
5.81729	15.5346	13.4809	-0.0228017	-9.7173	
5.81729	15.5069	13.4672	-0.0234125	-9.68964	
5.83112	15.4862	13.5701	-0.0234125	-9.65506	
5.84496	15.5138	13.5701	-0.0224963	-9.66888	
5.87262	15.4447	13.5906	-0.0270772	-9.57206	
5.87954	15.4447	13.6249	-0.026161	-9.56514	
5.88646	15.4793	13.6112	-0.0289096	-9.5928	
5.90029	15.4032	13.6181	-0.0298258	-9.5029	
5.92796	15.3963	13.5975	-0.0316581	-9.46832	
5.97638	15.4032	13.6318	-0.0334905	-9.42681	
6.0663	15.4378	13.6798	-0.0319635	-9.37147	
6.04555	15.4654	13.7004	-0.0337959	-9.41988	
6.05247	15.4447	13.6592	-0.0337959	-9.39222	
6.08706	15.4378	13.7004	-0.0347121	-9.35071	
6.05247	15.4516	13.7346	-0.0362391	-9.39913	
6.08014	15.4723	13.7484	-0.0359337	-9.39221	
6.09397	15.4793	13.7141	-0.0353229	-9.38529	
6.10781	15.5553	13.7552	-0.0353229	-9.44753	
6.0663	15.5622	13.7964	-0.0365445	-9.49595	
6.10781	15.6522	13.7415	-0.0347121	-9.54434	
6.0663	15.6522	13.7895	-0.0350175	-9.58585	
6.0663	15.6867	13.7552	-0.0344067	-9.62043	
6.00405	15.7282	13.8032	-0.0402092	-9.72417	
5.9833	15.7351	13.7826	-0.0411254	-9.75184	
6.01097	15.8043	13.7826	-0.0365445	-9.79333	
5.99022	15.825	13.8512	-0.0417362	-9.83482	
6.0248	15.8665	13.8169	-0.0399038	-9.84173	
5.96255	15.9149	13.8306	-0.0402092	-9.95239	
5.9418	15.991	13.8238	-0.0386822	-10.0492	
5.90721	16.0325	13.8306	-0.0405146	-10.1253	
5.92796	16.0463	13.8306	-0.0444848	-10.1184	
5.89338	16.0533	13.8512	-0.043874	-10.1599	
5.92796	16.1293	13.8512	-0.0460117	-10.2014	
5.94871	16.1362	13.8444	-0.0481495	-10.1875	
5.94871	16.1224	13.8444	-0.0481495	-10.1737	
5.96255	16.1916	13.8786	-0.0469279	-10.229	
5.89338	16.1777	13.9061	-0.0447902	-10.2844	
5.89338	16.1916	13.8855	-0.0432632	-10.2982	
5.92104	16.2192	13.8992	-0.0377661	-10.2982	
5.87954	16.2815	13.8855	-0.0344067	-10.4019	
5.83112	16.2745	13.8444	-0.0328797	-10.4434	
5.77579	16.24	13.8786	-0.0298258	-10.4642	
5.81729	16.2261	13.9266	-0.0249394	-10.4089	
5.73428	16.2538	13.8649	-0.0255502	-10.5195	
5.72737	16.2745	13.8375	-0.0267718	-10.5472	
5.72045	16.2054	13.8512	-0.0258556	-10.4849	
5.67203	16.1777	13.8169	-0.027688	-10.5057	
5.6997	16.1985	13.7209	-0.029215	-10.4988	
5.66511	16.1708	13.7621	-0.0298258	-10.5057	
5.72737	16.1916	13.7072	-0.0301312	-10.4642	
5.73428	16.1362	13.6729	-0.0282988	-10.402	
5.67203	16.1846	13.6386	-0.0286042	-10.5126	
5.71353	16.1362	13.6181	-0.026161	-10.4227	
5.7412	16.2192	13.5975	-0.0240232	-10.478	
5.70661	16.1362	13.5289	-0.0215801	-10.4296	
5.73428	16.1777	13.5221	-0.0182207	-10.4434	
5.68586	16.1916	13.4946	-0.0151668	-10.5057	
5.67895	16.2261	13.4809	-0.0136398	-10.5472	
5.63744	16.2261	13.4535	-0.0127236	-10.5887	
5.65128	16.2123	13.4329	-0.0127236	-10.561	
5.67203	16.2054	13.3781	-0.00997504	-10.5334	
5.60977	16.3022	13.3849	-0.00997504	-10.6924	
5.60977	16.2815	13.3369	-0.011502	-10.6717	
5.59594	16.3091	13.3164	-0.00905886	-10.7132	
5.52677	16.2953	13.3026	-0.00905886	-10.7685	
5.59594	16.2815	13.3369	-0.00783727	-10.6855	
5.56827	16.2676	13.2821	-0.00905886	-10.6994	
