C:\DOCUMENTS AND SETTINGS\ADMINISTRATOR\DESKTOP\EFFORT\PATIENT 28\TRACINGS\ACQ 3\EFFORT28_COMPLETE_OLD.ACQ
5.000000 msec/sample
5 channels
Paw
cmH2O
Peso
cmH2O
Pgas
cmH2O
Flow
L/s
PL
cmH2O
CH1	CH2	CH3	CH4	CH40	
74924	74924	74924	74924	74924	
8.52974	20.7047	20.8215	-0.689955	-12.1749	
8.39235	20.8077	20.9032	-0.681014	-12.4153	
8.516	20.8145	20.9849	-0.777642	-12.2985	
8.21374	20.8969	21.0939	-0.65938	-12.6832	
8.33739	20.8626	21.1484	-0.721396	-12.5252	
8.37174	20.9656	21.1756	-0.720242	-12.5938	
8.29618	20.9518	21.271	-0.655631	-12.6557	
8.23435	21.0274	21.2982	-0.589289	-12.793	
8.2	21.0205	21.2982	-0.629959	-12.8205	
8.23435	21.0686	21.3936	-0.657073	-12.8342	
8.24809	21.0754	21.4276	-0.663419	-12.8274	
8.13818	21.1647	21.4889	-0.626498	-13.0265	
8.23435	21.2471	21.5298	-0.509101	-13.0128	
8.21374	21.2334	21.5706	-0.59823	-13.0196	
8.14505	21.2196	21.6523	-0.576886	-13.0746	
8.24122	21.2471	21.6864	-0.656496	-13.0059	
8.06948	21.2334	21.7341	-0.610634	-13.1639	
7.93209	21.2196	21.7817	-0.606884	-13.2876	
7.95957	21.2814	21.8022	-0.482565	-13.3219	
7.9527	21.2814	21.8567	-0.548041	-13.3287	
7.87026	21.3158	21.843	-0.571117	-13.4455	
7.91835	21.302	21.8771	-0.569386	-13.3837	
7.86339	21.3089	21.9588	-0.594769	-13.4455	
7.85652	21.2883	21.9452	-0.573424	-13.4318	
7.82904	21.2883	21.918	-0.533331	-13.4593	
7.77409	21.3158	21.9656	-0.563617	-13.5417	
7.78096	21.3089	21.9384	-0.566213	-13.5279	
7.68478	21.3158	21.9861	-0.572271	-13.631	
7.68478	21.3226	21.9792	-0.475354	-13.6379	
7.6573	21.2402	21.9724	-0.523524	-13.5829	
7.54739	21.3089	22.0201	-0.475065	-13.7615	
7.55426	21.2608	21.9997	-0.42978	-13.7066	
7.45122	21.254	21.9656	-0.509101	-13.8028	
7.45809	21.199	21.9929	-0.523235	-13.741	
7.36191	21.1372	21.9792	-0.516024	-13.7753	
7.31382	21.151	21.9588	-0.460643	-13.8372	
7.22452	21.1166	21.9724	-0.432664	-13.8921	
7.24513	21.1235	21.9656	-0.421703	-13.8784	
7.20391	21.1304	21.9452	-0.400358	-13.9265	
7.1833	21.1304	21.9452	-0.368053	-13.9471	
7.08713	21.0823	21.952	-0.45372	-13.9952	
6.97034	21.0892	21.8975	-0.46295	-14.1188	
7.05278	21.096	21.918	-0.404973	-14.0433	
6.94287	21.0411	21.8839	-0.304883	-14.0982	
6.99095	21.0892	21.8226	-0.364303	-14.0982	
6.96347	20.9793	21.8567	-0.426318	-14.0158	
6.936	21.0068	21.8498	-0.44449	-14.0708	
6.88791	20.9724	21.8158	-0.352765	-14.0845	
6.82608	20.9793	21.7613	-0.329401	-14.1532	
6.83295	20.9518	21.7136	-0.316421	-14.1189	
6.8673	20.9724	21.7136	-0.382186	-14.1051	
6.81921	20.9244	21.6864	-0.366034	-14.1052	
6.83295	20.8969	21.6523	-0.329978	-14.064	
6.85356	20.8557	21.6523	-0.331132	-14.0022	
6.80547	20.8969	21.5706	-0.289019	-14.0914	
6.92913	20.9038	21.5502	-0.324786	-13.9747	
6.97721	20.8557	21.5434	-0.351034	-13.8785	
6.88791	20.9175	21.5025	-0.384782	-14.0296	
6.77113	20.8694	21.523	-0.323921	-14.0983	
6.68869	20.8145	21.4685	-0.283827	-14.1258	
6.77799	20.8351	21.4344	-0.237676	-14.0571	
6.72991	20.842	21.3391	-0.255271	-14.1121	
6.71617	20.7939	21.3391	-0.315267	-14.0778	
6.64747	20.8145	21.3255	-0.347862	-14.167	
6.58565	20.7802	21.2914	-0.261905	-14.1945	
6.50321	20.7047	21.2505	-0.279789	-14.2014	
6.40017	20.7459	21.2097	-0.27402	-14.3457	
6.37269	20.7184	21.2097	-0.230177	-14.3457	
6.27651	20.636	21.1824	-0.268251	-14.3595	
6.26277	20.5811	21.1484	-0.222677	-14.3183	
6.24904	20.5399	21.0939	-0.195563	-14.2908	
6.29025	20.4643	21.053	-0.192967	-14.1741	
6.25591	20.4163	21.0258	-0.21287	-14.1604	
6.22843	20.4094	20.9917	-0.250945	-14.181	
6.0773	20.3613	20.9986	-0.205371	-14.284	
6.02234	20.3201	20.9032	-0.179699	-14.2978	
5.99486	20.2858	20.8896	-0.132971	-14.2909	
5.93303	20.2446	20.8896	-0.176526	-14.3116	
5.91243	20.2171	20.8215	-0.19441	-14.3047	
5.85747	20.2103	20.8011	-0.179122	-14.3528	
5.88495	20.1416	20.7738	-0.143067	-14.2567	
5.87121	20.1004	20.7193	-0.150278	-14.2292	
5.7819	20.0798	20.6921	-0.150278	-14.2979	
5.76816	20.0386	20.6989	-0.140182	-14.2704	
5.80938	19.9631	20.6036	-0.139605	-14.1537	
5.7819	19.9356	20.6104	-0.117684	-14.1537	
5.83686	19.8807	20.5763	-0.125183	-14.0438	
5.79564	19.8326	20.5218	-0.116241	-14.037	
5.79564	19.7434	20.5286	-0.106434	-13.9477	
5.76816	19.7228	20.4742	-0.10903	-13.9546	
5.76816	19.6472	20.4265	-0.101819	-13.8791	
5.79564	19.5923	20.4197	-0.0960504	-13.7966	
5.8506	19.5374	20.4061	-0.0963389	-13.6868	
5.82999	19.5236	20.3311	-0.0891278	-13.6936	
5.8506	19.3863	20.3175	-0.0937429	-13.5357	
5.81625	19.3588	20.2426	-0.0850896	-13.5426	
5.83686	19.3382	20.2494	-0.0683599	-13.5014	
5.85747	19.1803	20.2154	-0.0631679	-13.3228	
5.89869	19.1048	20.2426	-0.0585528	-13.2061	
5.85747	19.0018	20.1745	-0.0605719	-13.1443	
5.7819	18.9125	20.1813	-0.0602835	-13.1306	
5.88495	18.8713	20.1677	-0.057399	-12.9864	
5.83686	18.7202	20.1405	-0.052207	-12.8834	
5.82999	18.6653	20.12	-0.0501879	-12.8353	
5.80251	18.5486	20.0792	-0.0524955	-12.7461	
5.91243	18.5074	20.086	-0.0533608	-12.595	
5.8506	18.425	20.0451	-0.0542261	-12.5744	
5.85747	18.2945	20.0042	-0.0556684	-12.4371	
5.87121	18.2945	20.0042	-0.0582644	-12.4233	
5.98112	18.2396	19.9702	-0.0614372	-12.2585	
6.02234	18.1778	19.9157	-0.0643217	-12.1555	
6.0086	18.0885	19.9089	-0.0623026	-12.0799	
6.04295	17.9855	19.9157	-0.0597066	-11.9426	
6.00173	17.9581	19.8408	-0.0608603	-11.9563	
6.0086	17.9031	19.834	-0.0628795	-11.8945	
6.01547	17.8619	19.8476	-0.0611488	-11.8465	
6.05669	17.7727	19.8272	-0.057399	-11.716	
6.05669	17.7658	19.7999	-0.057399	-11.7091	
6.05669	17.6834	19.7999	-0.0545146	-11.6267	
6.05669	17.704	19.7523	-0.0530724	-11.6473	
6.00173	17.6079	19.7455	-0.0524955	-11.6062	
5.96051	17.5255	19.7591	-0.0498995	-11.565	
5.94677	17.4912	19.691	-0.0478804	-11.5444	
5.8506	17.5255	19.6978	-0.0455728	-11.6749	
5.8506	17.4156	19.7114	-0.0461497	-11.565	
5.8506	17.4019	19.6705	-0.0467266	-11.5513	
5.80938	17.3744	19.6978	-0.0421115	-11.565	
5.71321	17.3195	19.6297	-0.0395155	-11.6063	
5.75442	17.2852	19.6365	-0.0369195	-11.5307	
5.6926	17.2165	19.691	-0.0340351	-11.5239	
5.66512	17.2371	19.5888	-0.0328813	-11.572	
5.61703	17.1616	19.5888	-0.0308622	-11.5445	
5.61703	17.1204	19.582	-0.0285547	-11.5033	
5.60329	17.0311	19.5411	-0.0227858	-11.4278	
5.56895	17.0448	19.5548	-0.0196129	-11.4759	
5.54147	17.0036	19.5343	-0.0149978	-11.4622	
5.45903	16.9624	19.4526	-0.0106712	-11.5034	
5.39721	16.9281	19.5003	-0.00720987	-11.5309	
5.34225	16.9212	19.4254	-0.00778676	-11.579	
5.26668	16.8251	19.439	-0.00634454	-11.5584	
5.22547	16.8251	19.3845	-0.00432543	-11.5996	
5.09494	16.7633	19.4254	0.000866547	-11.6684	
5.05373	16.674	19.3981	0.00836608	-11.6203	
4.95068	16.626	19.3777	0.0210576	-11.6753	
4.84077	16.6397	19.3368	0.0334607	-11.7989	
4.74459	16.4955	19.2687	0.042114	-11.7509	
4.62094	16.4269	19.3028	0.057113	-11.8059	
4.57972	16.3857	19.2892	0.0669201	-11.8059	
4.46294	16.3101	19.2619	0.075285	-11.8472	
4.36677	16.2346	19.2755	0.0897071	-11.8678	
4.18816	16.1453	19.1938	0.100956	-11.9572	
4.02329	16.0492	19.2619	0.102399	-12.0259	
3.70041	15.9874	19.2006	0.103552	-12.287	
3.69354	15.8775	19.187	0.0940338	-12.184	
3.72102	15.8226	19.2006	0.108456	-12.1016	
3.73476	15.7059	19.1393	0.124032	-11.9711	
3.63172	15.699	19.0712	0.130955	-12.0673	
3.5012	15.6029	19.0917	0.147684	-12.1017	
3.5012	15.5823	19.0508	0.161241	-12.0811	
3.67981	15.5136	19.044	0.18374	-11.8338	
3.88589	15.4244	18.9827	0.21143	-11.5385	
3.94772	15.3282	18.9827	0.235371	-11.3805	
4.11259	15.2596	18.9214	0.255851	-11.147	
4.18129	15.2046	18.8805	0.303732	-11.0233	
4.31868	15.0742	18.8261	0.322481	-10.7555	
4.50416	15.0467	18.7648	0.349306	-10.5425	
4.72398	14.9643	18.7648	0.386804	-10.2403	
4.95068	14.8682	18.7239	0.40238	-9.91749	
5.06059	14.7926	18.683	0.430359	-9.73204	
5.28729	14.7171	18.6286	0.448242	-9.42981	
5.49338	14.6278	18.6013	0.476221	-9.13446	
5.65825	14.6004	18.6081	0.466703	-8.94213	
5.89182	14.5248	18.5536	0.504489	-8.63303	
6.0773	14.4905	18.506	0.54141	-8.41322	
6.29712	14.3944	18.4515	0.555543	-8.09726	
6.41391	14.3257	18.4583	0.534487	-7.91181	
6.61312	14.2914	18.3902	0.538525	-7.67826	
6.82608	14.1609	18.3289	0.529295	-7.33484	
6.936	14.1472	18.2608	0.568235	-7.21119	
6.98408	14.0991	18.2676	0.598521	-7.11504	
7.08713	14.0785	18.2267	0.565639	-6.9914	
7.14895	13.9755	18.2267	0.586118	-6.82658	
7.25887	13.9206	18.1927	0.571985	-6.66173	
7.23139	13.8863	18.1178	0.588426	-6.65488	
7.23826	13.8794	18.1314	0.579484	-6.64114	
6.99095	13.9069	18.0224	0.557851	-6.91591	
6.90852	13.8725	17.9816	0.610348	-6.96401	
6.91539	13.797	18.0224	0.605156	-6.88161	
6.99782	13.7215	17.9271	0.567369	-6.72365	
7.094	13.7146	17.8999	0.588426	-6.62061	
7.14208	13.6322	17.8794	0.589003	-6.49012	
7.24513	13.5841	17.8658	0.58208	-6.33901	
7.16269	13.591	17.7977	0.623904	-6.42831	
7.20391	13.4949	17.7092	0.57285	-6.29097	
7.25887	13.4537	17.7092	0.609194	-6.19481	
7.27261	13.4811	17.6547	0.624481	-6.20854	
7.37565	13.3644	17.6274	0.621308	-5.98876	
7.37565	13.3232	17.573	0.618712	-5.94757	
7.30695	13.2957	17.5253	0.577465	-5.9888	
7.34817	13.3026	17.5389	0.607175	-5.95444	
7.32756	13.2546	17.464	0.639192	-5.92699	
7.38939	13.179	17.4367	0.638903	-5.78963	
7.42374	13.0898	17.3755	0.638615	-5.66602	
7.34817	13.0829	17.321	0.614963	-5.73472	
7.31382	13.0074	17.355	0.625923	-5.69353	
7.38939	13.0005	17.3142	0.583811	-5.6111	
7.40313	12.8906	17.2461	0.631692	-5.4875	
7.40313	12.7602	17.1916	0.621308	-5.35704	
7.35504	12.7396	17.1643	0.679286	-5.38453	
7.32756	12.6572	17.103	0.648711	-5.32961	
7.26574	12.5748	17.1167	0.718225	-5.30904	
7.41687	12.4855	17.0826	0.734667	-5.06864	
7.32756	12.3688	17.0009	0.710437	-5.04122	
7.31382	12.252	16.9668	0.671209	-4.93822	
7.3413	12.1353	16.9532	0.692265	-4.79402	
7.22452	12.1147	16.9055	0.677843	-4.8902	
7.252	11.9431	16.8579	0.690246	-4.69106	
7.43748	11.8607	16.8511	0.715629	-4.42318	
7.45122	11.792	16.8034	0.718225	-4.34078	
7.29321	11.6478	16.7489	0.709572	-4.35459	
7.33443	11.586	16.6944	0.705822	-4.25157	
7.31382	11.4555	16.6808	0.688516	-4.14172	
7.32756	11.3182	16.6672	0.750243	-3.99065	
7.30695	11.1946	16.5855	0.808797	-3.88766	
7.39626	11.0916	16.5855	0.743032	-3.69536	
7.31382	10.968	16.5446	0.755435	-3.6542	
7.38252	10.8719	16.5105	0.743608	-3.48937	
7.54739	10.714	16.4561	0.661114	-3.16657	
7.60235	10.5904	16.4152	0.731494	-2.98802	
7.55426	10.5011	16.3607	0.726302	-2.94684	
7.59548	10.3569	16.3743	0.738128	-2.76143	
7.55426	10.2264	16.2994	0.719379	-2.67218	
7.64356	10.1578	16.2654	0.704092	-2.51421	
7.73287	10.0067	16.2109	0.702361	-2.27385	
7.70539	9.78699	16.2041	0.79899	-2.0816	
7.70539	9.72519	16.1292	0.786586	-2.0198	
7.60235	9.61533	16.1087	0.824661	-2.01298	
7.80157	9.5192	16.1019	0.760915	-1.71763	
7.78783	9.36127	16.027	0.668036	-1.57344	
7.726	9.26514	15.993	0.681882	-1.53914	
7.89087	9.05915	16.027	0.720821	-1.16828	
7.78096	9.01108	15.993	0.778798	-1.23012	
7.74661	8.88748	15.9385	0.769568	-1.14088	
7.89087	8.76389	15.9249	0.739282	-0.873019	
8.10383	8.65403	15.8908	0.687939	-0.550198	
7.99391	8.52356	15.8499	0.72111	-0.529649	
8.1107	8.42057	15.8295	0.757454	-0.309869	
8.11757	8.3107	15.8023	0.740724	-0.193136	
8.13131	8.22144	15.7546	0.683324	-0.0901329	
8.19313	8.10471	15.7001	0.715629	0.0884232	
8.19313	8.06351	15.7069	0.694861	0.129622	
8.29618	7.96051	15.7069	0.723129	0.335663	
8.34426	7.91931	15.7001	0.638615	0.424949	
8.33739	7.84378	15.6592	0.679574	0.49361	
8.29618	7.78885	15.6524	0.634288	0.507324	
8.358	7.67899	15.6048	0.657364	0.679014	
8.358	7.65152	15.598	0.746781	0.70648	
8.44044	7.60346	15.5367	0.622462	0.83698	
8.44044	7.54853	15.523	0.646403	0.891912	
8.50913	7.52793	15.5094	0.670921	0.981207	
8.53661	7.473	15.489	0.630539	1.06362	
8.52287	7.37	15.5026	0.692265	1.15287	
8.53661	7.35627	15.5162	0.693131	1.18035	
8.50913	7.29447	15.4958	0.715629	1.21467	
8.64653	7.26014	15.489	0.684189	1.38639	
8.56409	7.21894	15.4822	0.65621	1.34515	
8.53661	7.17087	15.4481	0.647268	1.36574	
8.6534	7.14341	15.4345	0.629962	1.50999	
8.76331	7.07474	15.4481	0.651595	1.68857	
8.74957	7.05414	15.4413	0.655633	1.69543	
8.70835	6.96488	15.4141	0.644384	1.74347	
8.674	6.93055	15.3528	0.695438	1.74346	
8.64653	6.94428	15.4413	0.61554	1.70225	
8.77705	6.86875	15.3664	0.646403	1.9083	
8.74957	6.91681	15.38	0.620155	1.83276	
8.70835	6.90308	15.3936	0.61727	1.80527	
8.68087	6.81382	15.3868	0.647557	1.86706	
8.79766	6.85501	15.3732	0.652749	1.94264	
8.81827	6.84128	15.346	0.605444	1.97698	
8.87322	6.82068	15.346	0.620443	2.05254	
8.89383	6.80008	15.3596	0.625635	2.09375	
8.9007	6.77262	15.38	0.588426	2.12808	
8.77705	6.76575	15.4209	0.612944	2.0113	
8.77018	6.73828	15.3868	0.647845	2.03189	
8.79079	6.70395	15.3119	0.552082	2.08684	
8.78392	6.67649	15.4005	0.601694	2.10743	
8.83887	6.66962	15.4209	0.56362	2.16925	
8.89383	6.64902	15.2983	0.601983	2.24481	
8.83201	6.64215	15.3868	0.561024	2.18985	
8.81827	6.59409	15.4005	0.61179	2.22418	
8.76331	6.60096	15.4209	0.577465	2.16235	
8.88009	6.59409	15.3392	0.529583	2.286	
8.86635	6.57349	15.3664	0.5691	2.29286	
8.85261	6.58722	15.3664	0.51545	2.26539	
8.88009	6.60096	15.3868	0.601406	2.27914	
8.81827	6.59409	15.3528	0.574869	2.22418	
8.85948	6.53229	15.3732	0.615251	2.32719	
8.80453	6.58036	15.3732	0.546602	2.22417	
8.8114	6.58722	15.3051	0.545736	2.22417	
8.82514	6.55289	15.38	0.560158	2.27225	
8.88696	6.53916	15.38	0.558716	2.3478	
8.86635	6.54602	15.3392	0.568812	2.32033	
8.97627	6.57349	15.4141	0.547178	2.40278	
8.98314	6.55289	15.4073	0.537083	2.43025	
8.94192	6.48423	15.3732	0.563043	2.45769	
8.9007	6.53229	15.4005	0.542275	2.36841	
8.88009	6.58722	15.4073	0.541698	2.29287	
8.93505	6.53916	15.4141	0.493816	2.39589	
8.9694	6.53229	15.4141	0.54314	2.43711	
9.02435	6.55976	15.4413	0.515161	2.4646	
9.01748	6.54602	15.4413	0.573138	2.47146	
9.03809	6.57349	15.4141	0.540833	2.4646	
8.91444	6.58722	15.4073	0.505931	2.32722	
9.02435	6.60782	15.4549	0.486894	2.41653	
9.02435	6.61469	15.4073	0.486028	2.40967	
9.10679	6.56662	15.4209	0.490644	2.54017	
9.0587	6.57349	15.4686	0.521795	2.48521	
9.06557	6.62155	15.4073	0.471029	2.44402	
9.07244	6.62842	15.4754	0.46526	2.44402	
9.11366	6.63529	15.4958	0.476798	2.47837	
9.08618	6.64215	15.4822	0.436128	2.44403	
9.20983	6.70395	15.489	0.468433	2.50588	
9.14114	6.71769	15.4686	0.479683	2.42345	
9.14114	6.73828	15.4822	0.444781	2.40285	
9.20296	6.76575	15.4958	0.435262	2.43721	
9.25105	6.82755	15.4822	0.447089	2.4235	
9.2854	6.88935	15.5026	0.391131	2.39605	
9.30601	6.95114	15.523	0.416802	2.35486	
9.34036	7.00608	15.5503	0.436993	2.33428	
9.41592	7.05414	15.5162	0.405264	2.36178	
9.41592	7.13654	15.5843	0.381612	2.27938	
9.35409	7.14341	15.5639	0.373535	2.21069	
9.47088	7.19147	15.5639	0.383343	2.27941	
9.5327	7.2876	15.5299	0.392284	2.2451	
9.52583	7.33567	15.5707	0.344691	2.19017	
9.63575	7.38373	15.6252	0.350172	2.25202	
9.62888	7.42493	15.5911	0.325942	2.20395	
9.69757	7.45926	15.5843	0.337192	2.23831	
9.72505	7.55539	15.6116	0.348729	2.16966	
9.7594	7.65152	15.6252	0.31902	2.10788	
9.8281	7.69959	15.5843	0.283541	2.12851	
9.97236	7.79572	15.598	0.234506	2.17664	
10.0342	7.80945	15.6524	0.248351	2.22473	
10.0479	7.91245	15.598	0.259889	2.13548	
10.1578	7.93305	15.6048	0.249216	2.22479	
10.2265	8.04978	15.5911	0.20595	2.17676	
10.2059	8.11158	15.632	0.186913	2.09435	
10.2815	8.22144	15.6388	0.183163	2.06005	
10.2403	8.28324	15.6048	0.169894	1.95704	
10.3296	8.3519	15.5775	0.135858	1.97768	
10.3639	8.3931	15.6388	0.112783	1.97083	
10.4258	8.52356	15.6252	0.107302	1.90219	
10.4326	8.62656	15.6252	0.0819192	1.80606	
10.5013	8.62656	15.6524	0.0775925	1.87476	
10.5425	8.77076	15.6048	0.0631703	1.77178	
10.6112	8.81195	15.5707	0.0349029	1.79928	
7.80157	8.90122	15.6252	-0.0193245	-1.09965	
7.70539	8.94928	15.5843	-0.129221	-1.24389	
8.36487	9.01108	15.6184	-0.163546	-0.646209	
8.33739	9.15528	15.5911	-0.259598	-0.817883	
8.33739	9.23767	15.5639	-0.367187	-0.90028	
7.8153	9.18961	15.5571	-0.505929	-1.3743	
7.14208	9.32007	15.6184	-0.51314	-2.17799	
7.08713	9.32007	15.5843	-0.434106	-2.23294	
7.82904	9.40934	15.5571	-0.394589	-1.58029	
8.13818	9.45053	15.5843	-0.451124	-1.31236	
8.06948	9.4986	15.5094	-0.406416	-1.42912	
7.82217	9.57413	15.5639	-0.402089	-1.75196	
7.60922	9.61533	15.4822	-0.452855	-2.00611	
7.70539	9.67713	15.523	-0.459778	-1.97174	
7.91148	9.71833	15.5299	-0.495256	-1.80685	
8.01452	9.75952	15.5299	-0.415357	-1.745	
7.8153	9.78012	15.5094	-0.477373	-1.96482	
7.63669	9.88999	15.4958	-0.4667	-2.25329	
7.60922	9.92432	15.4958	-0.500448	-2.3151	
7.70539	9.94492	15.5162	-0.480834	-2.23953	
7.80157	10.0136	15.5367	-0.40007	-2.21202	
7.90461	10.0136	15.5026	-0.473911	-2.10897	
7.80843	10.0205	15.4958	-0.520928	-2.21202	
7.71226	10.1303	15.5503	-0.493526	-2.41805	
7.568	10.1303	15.5162	-0.437567	-2.56231	
7.60922	10.1921	15.5435	-0.478526	-2.5829	
7.60235	10.2264	15.5094	-0.485449	-2.6241	
7.69852	10.247	15.5571	-0.55208	-2.54852	
7.68478	10.2676	15.5299	-0.45747	-2.58286	
7.65043	10.3294	15.523	-0.489199	-2.67901	
7.67104	10.3432	15.5162	-0.511409	-2.67213	
7.78096	10.3844	15.5571	-0.561598	-2.60342	
7.73287	10.3981	15.5707	-0.444202	-2.66524	
7.726	10.4393	15.5639	-0.49093	-2.7133	
7.76035	10.4668	15.523	-0.508525	-2.70642	
7.73287	10.5835	15.598	-0.514293	-2.85063	
7.73287	10.5835	15.6048	-0.508236	-2.85063	
7.78096	10.5904	15.5843	-0.442183	-2.80941	
7.84278	10.659	15.632	-0.549195	-2.81625	
7.80843	10.7826	15.632	-0.560156	-2.97419	
7.82217	10.7964	15.6116	-0.490353	-2.97419	
7.74661	10.8444	15.5911	-0.504198	-3.09782	
7.77409	10.8719	15.6456	-0.490064	-3.0978	
7.76722	10.9062	15.6388	-0.490064	-3.13901	
7.84278	10.9543	15.7001	-0.51314	-3.11151	
7.67791	11.0436	15.7001	-0.458912	-3.36564	
7.82904	11.023	15.7001	-0.52237	-3.19391	
7.74661	11.1122	15.7001	-0.555252	-3.36561	
7.87026	11.1054	15.7342	-0.454297	-3.23509	
7.80157	11.1946	15.6797	-0.513428	-3.39305	
7.73287	11.2083	15.7205	-0.463239	-3.47548	
7.65043	11.2564	15.7478	-0.546888	-3.60598	
7.726	11.2495	15.7682	-0.539676	-3.52355	
7.68478	11.2907	15.7478	-0.495833	-3.60596	
7.63669	11.2907	15.7546	-0.477373	-3.65405	
7.71226	11.3388	15.775	-0.533908	-3.62655	
7.69852	11.4006	15.8023	-0.522658	-3.70209	
7.71913	11.3937	15.8091	-0.511986	-3.67461	
7.68478	11.4212	15.8295	-0.494102	-3.73643	
7.75348	11.4624	15.8363	-0.48891	-3.70893	
7.76035	11.5242	15.8431	-0.521793	-3.76386	
7.726	11.4899	15.8431	-0.51487	-3.76387	
7.726	11.5379	15.8772	-0.562752	-3.81194	
7.87713	11.586	15.8976	-0.5391	-3.70887	
7.82217	11.5929	15.918	-0.479392	-3.77069	
7.8153	11.6341	15.9453	-0.508813	-3.81876	
7.91148	11.6478	15.9112	-0.502467	-3.73632	
7.98704	11.7165	15.9793	-0.522947	-3.72942	
7.89087	11.7508	16.0066	-0.507082	-3.85993	
7.87026	11.7783	16.0611	-0.524677	-3.908	
7.90461	11.7989	16.0815	-0.472758	-3.89425	
7.90461	11.8057	16.027	-0.506505	-3.90112	
7.89774	11.8401	16.0679	-0.552656	-3.94232	
7.93896	11.9087	16.1087	-0.554676	-3.96977	
7.93896	11.9499	16.1428	-0.506794	-4.01097	
8.00078	11.9568	16.1905	-0.531023	-3.95601	
7.93209	12.0392	16.2245	-0.541696	-4.1071	
8.042	12.0598	16.2245	-0.559291	-4.01779	
7.96644	12.101	16.2313	-0.542561	-4.13455	
8.01452	12.1559	16.2994	-0.48343	-4.1414	
7.98017	12.1628	16.2722	-0.545157	-4.18261	
8.042	12.2452	16.3062	-0.571982	-4.20318	
7.93896	12.2864	16.3471	-0.585827	-4.34742	
8.02826	12.355	16.4492	-0.481411	-4.32678	
8.00765	12.2932	16.4629	-0.503621	-4.28559	
7.98017	12.4237	16.5105	-0.476507	-4.44353	
8.042	12.4512	16.5174	-0.605442	-4.40917	
7.93896	12.5198	16.5718	-0.497852	-4.58088	
7.85652	12.5679	16.5991	-0.544003	-4.71138	
7.96644	12.5954	16.5786	-0.531312	-4.62894	
8.00078	12.6434	16.6399	-0.586116	-4.64265	
7.90461	12.6366	16.7012	-0.541984	-4.73196	
7.91148	12.6846	16.6604	-0.468431	-4.77316	
7.94583	12.8082	16.7149	-0.470738	-4.8624	
8.01452	12.8563	16.7285	-0.560156	-4.84177	
7.94583	12.87	16.7012	-0.516313	-4.9242	
7.98704	12.8838	16.7761	-0.56304	-4.89672	
7.90461	12.9524	16.7557	-0.525543	-5.04782	
7.78783	13.0074	16.8034	-0.531888	-5.21953	
7.8153	13.0417	16.7761	-0.544003	-5.22639	
7.84278	13.0486	16.8851	-0.512274	-5.20577	
7.87026	13.131	16.8579	-0.541119	-5.26069	
7.86339	13.1722	16.8647	-0.517178	-5.30876	
7.74661	13.2408	16.9192	-0.490064	-5.49421	
7.85652	13.2202	16.9124	-0.453432	-5.3637	
7.77409	13.2889	16.9328	-0.519197	-5.5148	
7.76722	13.282	16.96	-0.566213	-5.5148	
7.73287	13.3781	16.9532	-0.558425	-5.64528	
7.62983	13.3575	16.9873	-0.494679	-5.72772	
7.76035	13.4811	17.0145	-0.517755	-5.7208	
7.65043	13.5017	17.0486	-0.509101	-5.85131	
0.203788	7.25327	20.4197	-0.110473	-7.04948	
0.176309	7.23267	20.3992	-0.122587	-7.05636	
0.217527	7.32193	20.3856	-0.141336	-7.10441	
0.196918	7.3288	20.338	-0.143644	-7.13188	
0.16257	7.38373	20.3516	-0.142201	-7.22116	
0.16944	7.4318	20.3584	-0.127202	-7.26236	
0.183179	7.52106	20.3584	-0.130664	-7.33788	
0.203788	7.55539	20.2971	-0.130087	-7.3516	
0.196918	7.64466	20.3243	-0.137586	-7.44774	
0.176309	7.67899	20.3243	-0.126049	-7.50268	
0.203788	7.69959	20.3175	-0.119126	-7.4958	
0.16944	7.76825	20.3039	-0.109319	-7.59881	
0.148831	7.76825	20.3107	-0.134702	-7.61942	
0.148831	7.85752	20.2494	-0.125183	-7.70869	
0.231266	7.91931	20.2903	-0.115376	-7.68805	
0.224397	7.96051	20.2698	-0.103838	-7.73612	
0.135092	8.02918	20.2767	-0.100666	-7.89409	
0.176309	8.09784	20.2562	-0.107011	-7.92153	
0.114483	8.06351	20.2426	-0.118261	-7.94903	
0.0938743	8.10471	20.229	-0.10903	-8.01083	
0.190049	8.15964	20.1677	-0.093166	-7.96959	
0.128222	8.17337	20.1881	-0.0911469	-8.04515	
0.183179	8.16651	20.1881	-0.0868203	-7.98333	
0.114483	8.20771	20.1677	-0.0773016	-8.09322	
0.100744	8.17337	20.1268	-0.0749941	-8.07263	
0.114483	8.19397	20.1336	-0.0758594	-8.07949	
0.135092	8.22831	20.12	-0.0775901	-8.09321	
0.107613	8.23517	20.0928	-0.0842243	-8.12756	
0.16257	8.28324	20.0519	-0.082782	-8.12067	
0.0801351	8.2901	20.0928	-0.0778785	-8.20997	
0.121353	8.36563	20.0587	-0.0784554	-8.24428	
0.121353	8.40683	20.0179	-0.085378	-8.28548	
0.100744	8.44117	20.0111	-0.0787438	-8.34042	
0.141961	8.4343	20.0111	-0.0721096	-8.29234	
0.100744	8.3725	19.9361	-0.0669177	-8.27176	
0.0870047	8.4755	19.943	-0.0545146	-8.38849	
0.0251783	8.46863	19.9225	-0.0481688	-8.44345	
-0.0091697	8.46176	19.8408	-0.0340351	-8.47093	
-0.0366481	8.53043	19.8612	-0.0230743	-8.56708	
-0.0229089	8.4755	19.8817	-0.0124019	-8.49841	
-0.0366481	8.48236	19.8817	-0.00865209	-8.51901	
-0.0160393	8.5167	19.7931	-0.00778676	-8.53274	
-0.0641265	8.4961	19.7999	-0.0060561	-8.56022	
-0.0641265	8.50296	19.7999	-0.00547921	-8.56709	
-0.0435177	8.50296	19.7455	-0.00259477	-8.54648	
-0.0366481	8.48236	19.7046	0.00144343	-8.51901	
-0.0435177	8.5373	19.7182	0.00836608	-8.58081	
-0.0641265	8.56476	19.7114	0.016154	-8.62889	
-0.0229089	8.54416	19.6842	0.0210576	-8.56707	
-0.0847353	8.59909	19.6978	0.0253842	-8.68383	
-0.0641265	8.5579	19.6705	0.0259611	-8.62202	
-0.0847353	8.59223	19.6024	0.0282687	-8.67696	
-0.0366481	8.57849	19.6433	0.0323069	-8.61514	
-0.0984745	8.58536	19.5956	0.0274033	-8.68384	
-0.0709961	8.57849	19.6365	0.034326	-8.64949	
-0.0503873	8.57849	19.6092	0.0279802	-8.62888	
-0.0916049	8.57163	19.6297	0.0308647	-8.66323	
-0.0160393	8.5373	19.582	0.0334607	-8.55334	
-0.0366481	8.5579	19.6024	0.0230767	-8.59454	
-0.0366481	8.57163	19.5411	0.0124043	-8.60828	
-0.0366481	8.56476	19.5003	0.00461631	-8.60141	
-0.0503873	8.50983	19.5003	0.00663542	-8.56022	
-0.0023001	8.48923	19.4594	0.00750075	-8.49153	
0.0320479	8.4755	19.5071	-0.00432543	-8.44345	
0.0663959	8.50296	19.5207	-0.0109596	-8.43657	
0.0251783	8.46176	19.4867	-0.0175938	-8.43659	
0.0526567	8.46176	19.4458	-0.0147094	-8.40911	
0.0114391	8.4755	19.4594	-0.00894053	-8.46406	
0.0183087	8.3931	19.4049	-0.011825	-8.37479	
0.0320479	8.3107	19.4186	-0.0164401	-8.27865	
0.0870047	8.30384	19.3505	-0.0224974	-8.21683	
0.114483	8.31757	19.3845	-0.0271125	-8.20309	
0.0938743	8.22144	19.3641	-0.0311507	-8.12756	
0.0870047	8.2489	19.4117	-0.0403809	-8.1619	
0.107613	8.20084	19.3436	-0.0501879	-8.09323	
0.121353	8.11158	19.3232	-0.0657639	-7.99022	
0.16257	8.08411	19.3096	-0.0798976	-7.92154	
0.210657	8.04978	19.3232	-0.093166	-7.83912	
0.203788	8.01545	19.3164	-0.105569	-7.81166	
0.231266	7.96051	19.2415	-0.115953	-7.72925	
0.183179	7.94678	19.2892	-0.124029	-7.7636	
0.203788	7.88498	19.2687	-0.134125	-7.68119	
0.306832	7.87812	19.2211	-0.147105	-7.57128	
0.279353	7.78199	19.2211	-0.158643	-7.50263	
0.265614	7.79572	19.187	-0.163835	-7.5301	
0.313701	7.76139	19.2415	-0.160085	-7.44768	
0.272484	7.78885	19.1393	-0.159508	-7.51637	
0.203788	7.76139	19.1734	-0.168161	-7.5576	
0.238136	7.71332	19.1393	-0.168161	-7.47519	
0.272484	7.74765	19.187	-0.162392	-7.47517	
0.258745	7.69959	19.1598	-0.13326	-7.44084	
0.16257	7.65152	19.1666	-0.139605	-7.48895	
0.190049	7.61032	19.1461	-0.148836	-7.42028	
0.265614	7.66526	19.1393	-0.15922	-7.39964	
0.183179	7.63092	19.1121	-0.152008	-7.44774	
0.238136	7.64466	19.0849	-0.147682	-7.40652	
0.107613	7.63092	19.0712	-0.0928776	-7.52331	
0.176309	7.63092	19.1121	-0.102108	-7.45461	
0.128222	7.56226	19.0508	-0.115665	-7.43404	
0.16944	7.59659	19.0167	-0.121722	-7.42715	
0.16944	7.58286	19.044	-0.113934	-7.41342	
0.148831	7.59659	18.9827	-0.0951851	-7.44776	
0.176309	7.62406	19.0372	-0.0856665	-7.44775	
0.114483	7.52793	18.9963	-0.0891278	-7.41344	
0.121353	7.56226	18.9895	-0.0986464	-7.44091	
0.16944	7.54166	18.9759	-0.0980696	-7.37222	
0.135092	7.52106	18.9486	-0.0859549	-7.38597	
0.107613	7.54853	18.9555	-0.0770132	-7.44091	
0.141961	7.58972	18.9486	-0.0775901	-7.44776	
0.0801351	7.57599	18.9486	-0.0784554	-7.49586	
0.183179	7.61032	18.935	-0.0798976	-7.42715	
0.0663959	7.56913	18.9555	-0.0715328	-7.50273	
0.135092	7.62406	18.9895	-0.0718212	-7.48897	
0.0595263	7.61032	18.9214	-0.0695137	-7.5508	
0.100744	7.64466	18.9078	-0.0672061	-7.54391	
0.0938743	7.65152	18.9078	-0.0700905	-7.55765	
0.0870047	7.66526	18.935	-0.0692252	-7.57825	
0.128222	7.70645	18.8942	-0.0628795	-7.57823	
0.0870047	7.69959	18.8737	-0.0582644	-7.61258	
0.100744	7.72019	18.8737	-0.0550915	-7.61944	
0.0595263	7.69959	18.8737	-0.0545146	-7.64006	
0.0663959	7.67212	18.8329	-0.0550915	-7.60573	
0.100744	7.73392	18.8737	-0.0510533	-7.63318	
0.0457871	7.76825	18.8737	-0.0470151	-7.72247	
0.0389175	7.68586	18.8737	-0.0452844	-7.64694	
0.0457871	7.69272	18.9418	-0.0386502	-7.64693	
0.0320479	7.70645	18.8465	-0.0380733	-7.67441	
0.0938743	7.67899	18.8601	-0.0343236	-7.58511	
0.0389175	7.69959	18.9078	-0.032016	-7.66067	
0.0595263	7.65152	18.8805	-0.0308622	-7.592	
0.0183087	7.67899	18.8601	-0.0274009	-7.66068	
0.0183087	7.63092	18.8737	-0.0253818	-7.61261	
-0.0023001	7.64466	18.901	-0.0236511	-7.64696	
0.0045695	7.61719	18.8874	-0.0213436	-7.61262	
0.0114391	7.59659	18.9078	-0.0184592	-7.58515	
-0.0091697	7.61719	18.8874	-0.0173054	-7.62636	
0.0114391	7.58972	18.9078	-0.0158632	-7.57829	
-0.0160393	7.55539	18.901	-0.0181707	-7.57143	
-0.0160393	7.59659	18.9078	-0.0181707	-7.61263	
0.0801351	7.58286	18.9078	-0.0187476	-7.50272	
0.0320479	7.56913	18.9282	-0.0201898	-7.53708	
-0.0091697	7.56226	18.9282	-0.0227858	-7.57143	
-0.0023001	7.52793	18.901	-0.0245165	-7.53023	
0.0251783	7.58286	18.9146	-0.0276894	-7.55768	
0.0732655	7.61719	18.9146	-0.0311507	-7.54393	
0.0732655	7.63092	18.9282	-0.0351889	-7.55766	
0.0457871	7.65839	18.9418	-0.0374964	-7.6126	
0.0801351	7.66526	18.935	-0.0452844	-7.58512	
0.0595263	7.67899	18.9282	-0.0484573	-7.61946	
0.0938743	7.73392	18.9691	-0.0498995	-7.64005	
0.0732655	7.74079	18.935	-0.0507648	-7.66752	
0.141961	7.76139	18.9486	-0.0556684	-7.61942	
0.0732655	7.82318	19.0031	-0.0562453	-7.74992	
0.0595263	7.87812	18.9827	-0.0559568	-7.81859	
0.0801351	7.91245	18.9691	-0.0539377	-7.83231	
0.0732655	7.95365	19.0031	-0.0513417	-7.88038	
-0.0091697	8.02231	18.9895	-0.0467266	-8.03148	
0.0320479	8.02918	19.0576	-0.0426884	-7.99713	
0.0595263	8.10471	19.0508	-0.0392271	-8.04518	
0.0526567	8.16651	19.0304	-0.0357658	-8.11385	
0.0251783	8.22831	19.078	-0.0337467	-8.20313	
-0.0023001	8.28324	19.078	-0.0302853	-8.28554	
0.0389175	8.30384	19.044	-0.024228	-8.26492	
0.0114391	8.3107	19.0167	-0.0233627	-8.29926	
-0.0023001	8.35877	19.0304	-0.021632	-8.36107	
0.0114391	8.3725	19.0644	-0.0147094	-8.36106	
-0.0297785	8.34503	19.0849	-0.0121134	-8.37481	
-0.0297785	8.33817	19.0576	-0.0112481	-8.36795	
-0.0091697	8.37937	19.0712	-0.00836364	-8.38854	
-0.0091697	8.3725	19.0712	-0.00951742	-8.38167	
-0.0297785	8.42057	19.0644	-0.00980586	-8.45034	
-0.0091697	8.42743	19.0508	-0.0100943	-8.4366	
-0.0160393	8.3931	19.0712	-0.00749831	-8.40914	
0.0526567	8.50296	19.044	-0.011825	-8.45031	
-0.0091697	8.50296	19.0508	-0.0115365	-8.51213	
0.0251783	8.50983	19.0508	-0.0129787	-8.48465	
-0.0091697	8.60596	19.044	-0.0103827	-8.61513	
0.0457871	8.60596	19.0576	-0.0126903	-8.56017	
-0.0160393	8.62656	18.9895	-0.0112481	-8.6426	
-0.0229089	8.64029	19.0372	-0.0080752	-8.6632	
-0.0297785	8.69522	19.0099	-0.00836364	-8.725	
-0.0160393	8.70209	18.9759	-0.00663298	-8.71813	
-0.0091697	8.77076	19.0236	-0.00720987	-8.77992	
-0.0984745	8.70896	19.0099	-0.0034601	-8.80743	
-0.0503873	8.77762	18.9963	0.00403943	-8.82801	
-0.0503873	8.79135	18.9759	0.0126927	-8.84174	
-0.125953	8.74329	18.9963	0.0227882	-8.86924	
-0.0778657	8.77076	18.9895	0.0314416	-8.84862	
-0.0916049	8.79822	18.9895	0.0357682	-8.88983	
-0.112214	8.77076	18.9759	0.0444215	-8.88297	
-0.132822	8.80509	18.9555	0.0582668	-8.93791	
-0.125953	8.84629	19.0031	0.067497	-8.97224	
-0.16717	8.79822	18.9759	0.0559592	-8.96539	
-0.0847353	8.85315	18.9555	0.0539401	-8.93789	
-0.132822	8.84629	18.9555	0.057113	-8.97911	
-0.18091	8.79822	18.9827	0.0703814	-8.97913	
-0.18091	8.87375	18.9282	0.0775925	-9.05466	
-0.16717	8.83255	18.9555	0.0657663	-8.99972	
-0.187779	8.81195	18.9418	0.062305	-8.99973	
-0.17404	8.82569	18.935	0.0773041	-8.99973	
-0.187779	8.83942	18.9623	0.0778809	-9.0272	
-0.146562	8.82569	18.9555	0.0706699	-8.97225	
-0.16717	8.80509	18.9623	0.0767272	-8.97226	
-0.146562	8.81882	18.9895	0.0588437	-8.96538	
-0.0847353	8.83255	18.9418	0.057113	-8.91729	
-0.146562	8.79822	18.9759	0.0556708	-8.94478	
-0.0916049	8.77076	18.8874	0.0380758	-8.86236	
-0.125953	8.79822	18.9214	0.0418255	-8.92417	
-0.0366481	8.80509	18.8737	0.0279802	-8.84174	
-0.0229089	8.80509	18.9214	0.0193269	-8.828	
0.0183087	8.77762	18.9486	0.0141349	-8.75931	
-0.0160393	8.75702	18.9827	0.00259721	-8.77306	
-0.0091697	8.68149	18.9418	0.000866547	-8.69066	
-0.0297785	8.64029	18.9623	-0.00490232	-8.67007	
0.0045695	8.64716	18.9418	-0.00317166	-8.64259	
-0.0366481	8.64029	18.9146	-0.00519076	-8.67694	
0.0251783	8.58536	18.9555	-0.0103827	-8.56018	
0.0732655	8.5373	18.8942	-0.0135556	-8.46403	
0.0183087	8.54416	18.9827	-0.0138441	-8.52585	
-0.0023001	8.44117	18.9282	-0.0147094	-8.44347	
0.0389175	8.4549	18.9486	-0.0199014	-8.41598	
0.0732655	8.42057	18.935	-0.0285547	-8.3473	
0.0732655	8.40683	18.9418	-0.0377849	-8.33357	
0.16257	8.35877	18.9282	-0.0539377	-8.1962	
0.0801351	8.24204	18.8942	-0.0723981	-8.1619	
0.176309	8.23517	18.8805	-0.093166	-8.05886	
0.16257	8.22144	18.8533	-0.106723	-8.05887	
0.251875	8.15277	18.8601	-0.122299	-7.9009	
0.224397	8.07724	18.8192	-0.134125	-7.85285	
0.217527	8.09784	18.8397	-0.136721	-7.88032	
0.265614	8.05664	18.9146	-0.140759	-7.79103	
0.245005	8.02918	18.8942	-0.150278	-7.78417	
0.210657	8.02918	18.8601	-0.153451	-7.81852	
0.238136	7.93991	18.7988	-0.153162	-7.70178	
0.176309	7.93991	18.8465	-0.160373	-7.7636	
0.286223	7.93991	18.8192	-0.149989	-7.65369	
0.224397	7.90558	18.8329	-0.132394	-7.68119	
0.16257	7.89185	18.8397	-0.130087	-7.72928	
0.224397	7.87812	18.8397	-0.126914	-7.65372	
0.141961	7.82318	18.7852	-0.107011	-7.68122	
0.155701	7.87812	18.758	-0.106434	-7.72242	
0.128222	7.86438	18.8329	-0.112492	-7.73616	
0.155701	7.82318	18.8124	-0.115376	-7.66748	
0.217527	7.78885	18.8192	-0.100666	-7.57133	
0.100744	7.83692	18.8329	-0.0798976	-7.73617	
0.128222	7.76139	18.7988	-0.0764363	-7.63316	
0.107613	7.83005	18.792	-0.0842243	-7.72244	
0.121353	7.80259	18.7852	-0.095762	-7.68123	
0.121353	7.81632	18.8056	-0.0749941	-7.69497	
0.141961	7.78885	18.7375	-0.0657639	-7.64689	
0.128222	7.74765	18.7716	-0.0680714	-7.61943	
0.0801351	7.79572	18.7443	-0.0672061	-7.71558	
0.0938743	7.74765	18.7784	-0.0669177	-7.65378	
0.100744	7.76825	18.7648	-0.0660523	-7.66751	
0.107613	7.80945	18.7375	-0.0614372	-7.70184	
0.148831	7.75452	18.7443	-0.0597066	-7.60569	
0.0732655	7.78885	18.7648	-0.0550915	-7.71559	
0.0389175	7.83005	18.7784	-0.054803	-7.79113	
0.0595263	7.78885	18.7443	-0.0576875	-7.72933	
0.0663959	7.82318	18.7443	-0.054803	-7.75679	
0.0251783	7.81632	18.7239	-0.0510533	-7.79114	
0.0732655	7.85752	18.758	-0.0478804	-7.78425	
0.0938743	7.87812	18.7239	-0.0467266	-7.78424	
0.0595263	7.86438	18.7511	-0.044996	-7.80486	
0.0457871	7.89185	18.7239	-0.0421115	-7.84606	
0.0595263	7.95365	18.7239	-0.0389386	-7.89412	
0.0663959	7.91245	18.7443	-0.0351889	-7.84605	
0.0389175	7.93305	18.7648	-0.0325929	-7.89413	
0.0251783	7.95365	18.7852	-0.0288431	-7.92847	
-0.0297785	7.94678	18.7716	-0.0276894	-7.97656	
0.0457871	7.93305	18.7648	-0.0230743	-7.88726	
0.0389175	7.95365	18.7784	-0.0219205	-7.91473	
0.0045695	7.96738	18.7511	-0.0181707	-7.96281	
-0.0023001	7.91931	18.758	-0.0158632	-7.92161	
-0.0091697	7.85065	18.758	-0.0138441	-7.85982	
0.0114391	7.84378	18.7852	-0.011825	-7.83234	
-0.0229089	7.83692	18.7784	-0.0115365	-7.85983	
-0.0435177	7.81632	18.792	-0.00865209	-7.85984	
-0.0091697	7.86438	18.8124	-0.00951742	-7.87355	
-0.0023001	7.79572	18.8056	-0.0100943	-7.79802	
-0.0503873	7.74765	18.8397	-0.0109596	-7.79804	
-0.0572569	7.78885	18.8397	-0.00778676	-7.84611	
-0.0160393	7.75452	18.8397	-0.00720987	-7.77056	
-0.0572569	7.75452	18.8737	-0.00749831	-7.81178	
-0.0160393	7.71332	18.8124	-0.00634454	-7.72936	
-0.105344	7.70645	18.8805	-0.00576765	-7.8118	
0.0114391	7.74079	18.8533	-0.00720987	-7.72935	
0.0251783	7.75452	18.8874	-0.00922897	-7.72934	
0.0183087	7.69959	18.8874	-0.00951742	-7.68128	
0.0114391	7.71332	18.9078	-0.0115365	-7.70188	
0.0183087	7.73392	18.8805	-0.0138441	-7.71561	
0.0457871	7.76825	18.8737	-0.0135556	-7.72247	
0.0457871	7.78199	18.8805	-0.0135556	-7.7362	
0.0320479	7.80259	18.8805	-0.0164401	-7.77054	
0.0320479	7.82318	18.9146	-0.0167285	-7.79114	
0.0389175	7.78885	18.9146	-0.0199014	-7.74993	
0.0457871	7.87812	18.9146	-0.0253818	-7.83233	
0.0526567	7.91931	18.9827	-0.026824	-7.86666	
0.0114391	7.92618	18.9555	-0.0285547	-7.91474	
0.0595263	7.97425	19.0644	-0.0285547	-7.91472	
0.0526567	8.02231	18.9827	-0.0291316	-7.96965	
0.0526567	8.07038	19.0712	-0.0288431	-8.01772	
0.0183087	8.14591	19.044	-0.026824	-8.1276	
0.0320479	8.18024	19.0849	-0.0230743	-8.14819	
-0.0160393	8.22144	19.0712	-0.0213436	-8.23748	
0.0114391	8.27637	19.0917	-0.0155747	-8.26493	
0.0045695	8.37937	19.1461	-0.014421	-8.3748	
0.0045695	8.35877	19.1257	-0.0147094	-8.3542	
-0.0435177	8.37937	19.1461	-0.00951742	-8.42288	
0.0114391	8.4343	19.1598	-0.0080752	-8.42286	
-0.0709961	8.4755	19.1325	-0.0080752	-8.54649	
-0.0366481	8.4755	19.1461	-0.00576765	-8.51215	
-0.0503873	8.48236	19.187	-0.00692143	-8.53275	
-0.0229089	8.46176	19.1938	-0.00461388	-8.48467	
-0.0984745	8.4755	19.1734	-0.00259477	-8.57397	
-0.0366481	8.52356	19.1938	0.00115499	-8.56021	
0.0114391	8.46176	19.187	0.00548164	-8.45033	
-0.0366481	8.54416	19.2074	0.00548164	-8.58081	
-0.0023001	8.5579	19.1938	0.00577009	-8.5602	
0.0045695	8.57849	19.2211	0.00548164	-8.57392	
-0.0572569	8.62656	19.2211	0.0051932	-8.68382	
0.0251783	8.63343	19.187	0.00692386	-8.60825	
-0.0435177	8.65403	19.187	0.00202032	-8.69754	
-0.0503873	8.68836	19.1666	0.00403943	-8.73875	
-0.0503873	8.72956	19.2483	0.00750075	-8.77994	
-0.0641265	8.73642	19.2074	0.0100967	-8.80055	
-0.0709961	8.70209	19.2415	0.0112505	-8.77309	
-0.0916049	8.79822	19.1938	0.0173078	-8.88983	
-0.112214	8.76389	19.2619	0.0262496	-8.8761	
-0.0709961	8.79822	19.2074	0.0331722	-8.86922	
-0.105344	8.82569	19.2074	0.0380758	-8.93103	
-0.160301	8.82569	19.1938	0.0475944	-8.98599	
-0.146562	8.79135	19.2347	0.0620166	-8.93792	
-0.208388	8.81882	19.2142	0.0703814	-9.02721	
-0.228997	8.87375	19.2279	0.0729774	-9.10275	
-0.208388	8.87375	19.2824	0.0773041	-9.08214	
-0.222127	8.88062	19.2347	0.090284	-9.10275	
-0.270214	8.85315	19.2755	0.0972067	-9.12337	
-0.256475	8.86689	19.2415	0.0931684	-9.12336	
-0.235866	8.90122	19.2687	0.111629	-9.13708	
-0.256475	8.90122	19.2483	0.110187	-9.15769	
-0.208388	8.90122	19.2483	0.105572	-9.10961	
-0.249606	8.88062	19.2619	0.11884	-9.13022	
-0.263345	8.86689	19.296	0.116244	-9.13023	
-0.277084	8.86002	19.33	0.108456	-9.1371	
-0.283954	8.86689	19.2824	0.111629	-9.15084	
-0.256475	8.84629	19.2551	0.121724	-9.10276	
-0.242736	8.79822	19.3096	0.11134	-9.04096	
-0.242736	8.81882	19.296	0.102976	-9.06156	
-0.17404	8.81882	19.296	0.100091	-8.99286	
-0.263345	8.82569	19.3368	0.105572	-9.08903	
-0.201518	8.76389	19.3505	0.103264	-8.96541	
-0.17404	8.77076	19.3164	0.0891302	-8.9448	
-0.18091	8.72956	19.3096	0.0839383	-8.91047	
-0.194649	8.73642	19.3368	0.0891302	-8.93107	
-0.112214	8.78449	19.33	0.0703814	-8.8967	
-0.0641265	8.79135	19.296	0.0499019	-8.85548	
-0.119083	8.70896	19.3164	0.0435562	-8.82804	
-0.0641265	8.72956	19.3232	0.0340375	-8.79368	
-0.0778657	8.70896	19.3709	0.0400949	-8.78682	
-0.132822	8.61969	19.3641	0.0432677	-8.75252	
-0.0709961	8.59223	19.33	0.0297109	-8.66322	
-0.0572569	8.57849	19.3845	0.0271149	-8.63575	
-0.0572569	8.53043	19.3777	0.0219229	-8.58769	
-0.0023001	8.50296	19.4186	0.00865452	-8.50526	
0.0526567	8.4755	19.4322	0.00202032	-8.42284	
0.0251783	8.39997	19.3641	-0.00490232	-8.37479	
0.0251783	8.36563	19.3505	-0.00922897	-8.34046	
0.0526567	8.3519	19.4117	-0.014421	-8.29924	
0.0801351	8.29697	19.3709	-0.0173054	-8.21683	
0.0732655	8.22831	19.3913	-0.0207667	-8.15504	
0.0320479	8.20771	19.3981	-0.0297085	-8.17566	
0.0870047	8.13904	19.3913	-0.0447075	-8.05204	
0.107613	8.13217	19.3981	-0.0631679	-8.02456	
0.190049	8.07724	19.3641	-0.082782	-7.88719	
0.196918	8.00171	19.3913	-0.0986464	-7.80479	
0.190049	8.01545	19.3913	-0.1073	-7.8254	
0.210657	7.96738	19.3777	-0.11653	-7.75672	
0.210657	7.95365	19.4458	-0.119991	-7.74299	
0.203788	7.89872	19.3845	-0.118261	-7.69493	
0.196918	7.91245	19.3981	-0.117107	-7.71553	
0.190049	7.85752	19.4049	-0.117107	-7.66747	
0.183179	7.87125	19.3709	-0.117972	-7.68807	
0.148831	7.83005	19.3845	-0.119414	-7.68122	
0.135092	7.81632	19.3505	-0.109607	-7.68123	
0.176309	7.76825	19.3913	-0.102108	-7.59194	
0.176309	7.80945	19.3573	-0.102685	-7.63314	
0.0870047	7.73392	19.3981	-0.0816283	-7.64692	
0.0870047	7.72705	19.3845	-0.0871087	-7.64005	
0.107613	7.69959	19.4049	-0.0761479	-7.59197	
0.141961	7.74079	19.3368	-0.0761479	-7.59883	
0.114483	7.74079	19.4049	-0.0764363	-7.6263	
0.0870047	7.72705	19.3845	-0.0674945	-7.64005	
0.0389175	7.70645	19.3777	-0.0646101	-7.66754	
0.121353	7.72705	19.3845	-0.0591297	-7.6057	
0.0663959	7.72705	19.3709	-0.062591	-7.66066	
0.0732655	7.67899	19.3505	-0.052207	-7.60572	
0.100744	7.74079	19.3777	-0.0516302	-7.64004	
0.100744	7.67899	19.3777	-0.0461497	-7.57824	
0.0732655	7.69272	19.3709	-0.0484573	-7.61946	
0.0732655	7.67899	19.4117	-0.0484573	-7.60572	
0.0526567	7.72019	19.3709	-0.0519186	-7.66753	
0.100744	7.69272	19.3845	-0.0507648	-7.59198	
0.0526567	7.71332	19.3436	-0.044996	-7.66066	
0.0526567	7.75452	19.3641	-0.0386502	-7.70186	
0.0595263	7.74079	19.3436	-0.0406693	-7.68126	
0.0595263	7.80259	19.3096	-0.0409578	-7.74306	
-0.0160393	7.76825	19.3436	-0.0380733	-7.78429	
0.0183087	7.85065	19.3709	-0.0351889	-7.83234	
0.0389175	7.82318	19.3164	-0.032016	-7.78427	
0.0389175	7.82318	19.3913	-0.0276894	-7.78427	
-0.0023001	7.82318	19.3981	-0.0248049	-7.82548	
-0.0091697	7.92618	19.3777	-0.0253818	-7.93535	
0.0251783	7.84378	19.3709	-0.021632	-7.81861	
-0.0023001	7.91245	19.4049	-0.0173054	-7.91475	
-0.0435177	7.85752	19.3845	-0.0155747	-7.90103	
0.0251783	7.92618	19.4117	-0.0121134	-7.901	
-0.0160393	7.85065	19.3777	-0.00894053	-7.86669	
-0.0160393	7.87125	19.3981	-0.00922897	-7.88729	
-0.0229089	7.80259	19.4254	-0.00749831	-7.82549	
-0.0435177	7.82318	19.4186	-0.0103827	-7.8667	
-0.0023001	7.79572	19.4049	-0.00749831	-7.79802	
-0.0091697	7.78885	19.4254	-0.00576765	-7.79802	
-0.0847353	7.77512	19.4458	-0.00259477	-7.85985	
-0.0435177	7.69959	19.4594	1.21691E-006	-7.74311	
-0.0366481	7.66526	19.4526	0.00259721	-7.7019	
-0.0023001	7.74079	19.473	0.00346254	-7.74309	
-0.0709961	7.65839	19.4935	0.0051932	-7.72939	
-0.0091697	7.66526	19.4594	0.00807763	-7.67443	
-0.0778657	7.67899	19.4867	0.00577009	-7.75685	
-0.0503873	7.61719	19.5003	0.00692386	-7.66758	
-0.0366481	7.63092	19.5411	0.00548164	-7.66757	
-0.0229089	7.62406	19.5275	0.00577009	-7.64697	
-0.0503873	7.67899	19.5411	0.00288565	-7.72938	
0.0183087	7.61032	19.5684	-0.00201789	-7.59202	
0.0114391	7.64466	19.5207	-0.00720987	-7.63322	
0.0251783	7.64466	19.582	-0.00663298	-7.61948	
0.0114391	7.65839	19.5684	-0.0100943	-7.64695	
0.0183087	7.61719	19.6024	-0.011825	-7.59888	
-0.0297785	7.69272	19.6161	-0.0100943	-7.7225	
-0.0023001	7.69272	19.5888	-0.0121134	-7.69502	
0.0114391	7.72705	19.6161	-0.0132672	-7.71561	
0.0045695	7.71332	19.6569	-0.0147094	-7.70875	
0.0457871	7.82318	19.6569	-0.0149978	-7.7774	
0.0389175	7.85752	19.6433	-0.0204783	-7.8186	
0.0389175	7.86438	19.6297	-0.0210552	-7.82547	
0.0183087	7.91931	19.6978	-0.021632	-7.90101	
0.0183087	7.93305	19.7046	-0.0196129	-7.91474	
-0.0023001	7.99485	19.6842	-0.0181707	-7.99715	
0.0389175	8.02918	19.7318	-0.0158632	-7.99026	
-0.0160393	8.09784	19.7114	-0.014421	-8.11388	
0.0114391	8.15964	19.7455	-0.0124019	-8.1482	
-0.0503873	8.24204	19.8136	-0.0115365	-8.29243	
-0.0023001	8.26264	19.7727	-0.00663298	-8.26494	
0.0114391	8.31757	19.7659	-0.00865209	-8.30613	
-0.0572569	8.28324	19.7591	-0.00922897	-8.34049	
-0.0091697	8.30384	19.725	-0.00865209	-8.31301	
-0.0229089	8.35877	19.8272	-0.00259477	-8.38168	
-0.0778657	8.38623	19.8067	-0.00374855	-8.4641	
-0.0229089	8.38623	19.8136	0.00028966	-8.40914	
-0.0435177	8.39997	19.8817	0.00548164	-8.44348	
-0.0641265	8.39997	19.8272	0.0100967	-8.46409	
-0.0297785	8.4137	19.8136	0.0126927	-8.44348	
-0.0503873	8.4137	19.834	0.0124043	-8.46409	
-0.0641265	8.39997	19.8612	0.0112505	-8.46409	
-0.0503873	8.4549	19.8408	0.0144234	-8.50529	
-0.0023001	8.46863	19.8817	0.00951985	-8.47093	
-0.0366481	8.50983	19.8272	0.011539	-8.54648	
-0.0778657	8.50983	19.8272	0.00980829	-8.5877	
-0.0160393	8.57163	19.8476	0.0103852	-8.58767	
0.0045695	8.57849	19.8544	0.0150003	-8.57392	
-0.0709961	8.64716	19.8748	0.0155772	-8.71816	
-0.105344	8.63343	19.8748	0.0216345	-8.73877	
-0.112214	8.64029	19.8612	0.0248074	-8.75251	
-0.0709961	8.67462	19.8204	0.0279802	-8.74562	
-0.125953	8.68836	19.8272	0.0334607	-8.81431	
-0.132822	8.68836	19.8544	0.0455753	-8.82118	
-0.16717	8.73642	19.834	0.0568246	-8.90359	
-0.16717	8.75702	19.8612	0.0628819	-8.92419	
-0.194649	8.74329	19.8272	0.0715352	-8.93794	
-0.235866	8.74329	19.8953	0.0865342	-8.97916	
-0.222127	8.79822	19.8612	0.0940338	-9.02035	
-0.228997	8.75702	19.8748	0.0873996	-8.98602	
-0.208388	8.75702	19.8953	0.0917262	-8.96541	
-0.256475	8.71582	19.8612	0.0960529	-8.9723	
-0.283954	8.68836	19.8953	0.115955	-8.97231	
-0.283954	8.75702	19.9021	0.116532	-9.04098	
-0.263345	8.75702	19.8748	0.113359	-9.02037	
-0.325171	8.73642	19.9225	0.109321	-9.06159	
-0.222127	8.75702	19.8612	0.124897	-8.97915	
-0.311432	8.73642	19.8885	0.137012	-9.04786	
-0.249606	8.75016	19.9293	0.109898	-8.99976	
-0.277084	8.75016	19.9225	0.134704	-9.02724	
-0.318302	8.65403	19.9089	0.129512	-8.97233	
-0.242736	8.71582	19.9225	0.12807	-8.95856	
-0.242736	8.68836	19.9702	0.125474	-8.93109	
-0.263345	8.66089	19.9566	0.137877	-8.92424	
-0.208388	8.64029	19.9225	0.132685	-8.84868	
-0.201518	8.59909	19.943	0.0948991	-8.80061	
-0.201518	8.59223	19.9906	0.09288	-8.79375	
-0.18091	8.60596	19.9361	0.0925916	-8.78687	
-0.17404	8.58536	19.9906	0.0914378	-8.7594	
-0.16717	8.58536	19.9634	0.0986489	-8.75253	
-0.119083	8.53043	20.0179	0.0559592	-8.64951	
-0.139692	8.53043	19.9906	0.049325	-8.67012	
-0.105344	8.50983	20.0179	0.0591321	-8.61517	
-0.0916049	8.42743	19.9702	0.0599975	-8.51904	
-0.0984745	8.3725	20.0383	0.0729774	-8.47098	
-0.105344	8.3931	19.9906	0.0475944	-8.49844	
-0.0572569	8.33817	20.0519	0.0426908	-8.39543	
-0.0641265	8.3107	19.977	0.0331722	-8.37483	
-0.0297785	8.25577	20.0315	0.0311531	-8.28555	
-0.0297785	8.20084	20.0587	0.0233651	-8.23062	
-0.0297785	8.13904	20.0519	0.0118274	-8.16882	
-0.0297785	8.09784	20.0315	0.00375098	-8.12762	
-0.0503873	8.06351	20.0042	-0.00461388	-8.1139	
0.0389175	8.00171	20.0587	-0.0080752	-7.96279	
0.0251783	7.97425	20.0519	-0.0181707	-7.94907	
0.0801351	7.86438	20.0451	-0.0175938	-7.78425	
0.0595263	7.83692	20.0315	-0.0173054	-7.77739	
0.0457871	7.83692	20.0383	-0.0204783	-7.79113	
0.0801351	7.78199	20.0451	-0.0343236	-7.70185	
0.0870047	7.67212	20.0519	-0.0435537	-7.58512	
0.128222	7.66526	20.0179	-0.0571106	-7.53703	
0.107613	7.69272	20.0792	-0.0654754	-7.58511	
0.183179	7.61719	20.0383	-0.0686483	-7.43401	
0.107613	7.58972	20.0451	-0.0726865	-7.48211	
0.155701	7.54853	20.086	-0.0721096	-7.39283	
0.121353	7.56226	20.0655	-0.0686483	-7.44091	
0.0801351	7.47986	20.0723	-0.0663408	-7.39973	
0.0870047	7.48673	20.0655	-0.0608603	-7.39972	
0.100744	7.43866	20.12	-0.057399	-7.33792	
0.107613	7.46613	20.0315	-0.052207	-7.35852	
0.0526567	7.3494	20.0383	-0.0452844	-7.29674	
0.0663959	7.3906	20.0655	-0.039804	-7.3242	
0.0801351	7.4112	20.0723	-0.0383618	-7.33106	
0.0595263	7.37686	20.0587	-0.0331698	-7.31734	
0.0251783	7.38373	20.0655	-0.0297085	-7.35855	
0.0457871	7.39746	20.0792	-0.0250934	-7.35168	
0.0732655	7.36313	20.0792	-0.0213436	-7.28987	
-0.0023001	7.3288	20.0996	-0.0178823	-7.3311	
-0.0229089	7.32193	20.0928	-0.0152863	-7.34484	
0.0114391	7.3288	20.0928	-0.0129787	-7.31736	
-0.0229089	7.29447	20.1064	-0.011825	-7.31738	
-0.0366481	7.2876	20.1268	-0.00951742	-7.32425	
-0.0297785	7.26014	20.086	-0.00894053	-7.28991	
0.0183087	7.29447	20.0587	-0.00778676	-7.27616	
-0.0023001	7.29447	20.0928	-0.00836364	-7.29677	
-0.0503873	7.2876	20.0928	-0.00663298	-7.33799	
-0.0641265	7.30133	20.1132	-0.00576765	-7.36546	
-0.0435177	7.31507	20.1064	-0.00317166	-7.35858	
0.0045695	7.3288	20.0723	-0.00374855	-7.32423	
-0.0297785	7.27387	20.0723	-0.00115256	-7.30365	
-0.0229089	7.29447	20.0723	0.00288565	-7.31738	
-0.0641265	7.3288	20.1473	0.00663542	-7.39293	
-0.0435177	7.37	20.12	0.00894296	-7.41352	
-0.0366481	7.36313	20.12	0.0112505	-7.39978	
-0.0435177	7.39746	20.1268	0.0129812	-7.44098	
-0.0916049	7.38373	20.1336	0.0132696	-7.47534	
-0.0641265	7.4524	20.1064	0.0152887	-7.51652	
-0.0709961	7.40433	20.1609	0.0167309	-7.47533	
-0.0984745	7.40433	20.1473	0.0201923	-7.50281	
-0.0847353	7.38373	20.1677	0.0230767	-7.46847	
-0.119083	7.36313	20.1609	0.0279802	-7.48222	
-0.0709961	7.3494	20.1813	0.0288456	-7.4204	
-0.0984745	7.33567	20.2086	0.029134	-7.43414	
-0.0984745	7.32193	20.2426	0.0308647	-7.42041	
-0.125953	7.3288	20.229	0.0340375	-7.45475	
-0.0160393	7.3082	20.2358	0.0374989	-7.32424	
-0.0572569	7.25327	20.263	0.0429793	-7.31053	
-0.0847353	7.2464	20.2767	0.0409602	-7.33114	
-0.125953	7.23267	20.2835	0.0400949	-7.35862	
-0.105344	7.19147	20.3175	0.0400949	-7.29681	
-0.105344	7.21894	20.3175	0.0374989	-7.32428	
-0.0435177	7.164	20.3243	0.0400949	-7.20752	
-0.112214	7.12281	20.3448	0.0383642	-7.23502	
-0.0641265	7.17087	20.3448	0.0377873	-7.235	
-0.119083	7.11594	20.372	0.0331722	-7.23502	
-0.0847353	7.08161	20.3856	0.034326	-7.16634	
-0.0709961	7.08847	20.3584	0.0299993	-7.15947	
-0.0435177	7.10907	20.4061	0.03173	-7.15259	
-0.0641265	7.10907	20.4673	0.0222114	-7.1732	
-0.0435177	7.08847	20.4265	0.0222114	-7.13199	
-0.0366481	7.10221	20.4401	0.0167309	-7.13885	
0.0389175	7.15714	20.4605	0.0124043	-7.11822	
-0.0091697	7.12967	20.4605	0.0126927	-7.13884	
-0.0297785	7.10221	20.4401	0.0112505	-7.13199	
-0.0366481	7.164	20.4946	0.0103852	-7.20065	
-0.0229089	7.21207	20.515	0.00663542	-7.23498	
-0.0297785	7.2464	20.4878	0.00432787	-7.27618	
-0.0229089	7.2876	20.515	0.00663542	-7.31051	
-0.0160393	7.28073	20.5218	0.0072123	-7.29677	
-0.0641265	7.37	20.5967	0.0109621	-7.43412	
-0.0572569	7.33567	20.6104	0.00980829	-7.39292	
-0.0984745	7.41806	20.6785	0.0155772	-7.51654	
-0.0847353	7.4524	20.6376	0.0184616	-7.53713	
-0.105344	7.4318	20.6717	0.0236536	-7.53714	
-0.105344	7.48673	20.6853	0.0262496	-7.59207	
-0.0984745	7.54166	20.6921	0.03173	-7.64013	
-0.0503873	7.58286	20.7193	0.0366335	-7.63325	
-0.0778657	7.63092	20.7193	0.0363451	-7.70879	
-0.119083	7.70645	20.7534	0.0400949	-7.82554	
-0.0984745	7.69959	20.7261	0.0444215	-7.79806	
-0.119083	7.73392	20.7534	0.0470175	-7.853	
-0.112214	7.73392	20.7466	0.0484597	-7.84613	
-0.16717	7.72705	20.7466	0.0478828	-7.89422	
-0.119083	7.78885	20.8147	0.054517	-7.90794	
-0.119083	7.78199	20.8147	0.0617281	-7.90107	
-0.125953	7.72705	20.7738	0.0677854	-7.85301	
-0.139692	7.83692	20.8079	0.0576899	-7.97661	
-0.146562	7.78885	20.8419	0.0536517	-7.93541	
-0.160301	7.76139	20.8419	0.0426908	-7.92169	
-0.153431	7.81632	20.8419	0.051921	-7.96975	
-0.125953	7.83005	20.8828	0.0591321	-7.956	
-0.0916049	7.89872	20.8692	0.0533633	-7.99032	
-0.139692	7.93305	20.8623	0.0556708	-8.07274	
-0.132822	7.89872	20.91	0.0452868	-8.03154	
-0.132822	7.94678	20.9305	0.0585552	-8.0796	
-0.125953	7.98111	20.8828	0.0594206	-8.10707	
-0.119083	7.99485	20.8692	0.0559592	-8.11393	
-0.208388	8.02231	20.8896	0.0605743	-8.2307	
-0.16717	8.03604	20.9373	0.0709583	-8.20321	
-0.17404	8.01545	20.9305	0.0778809	-8.18949	
-0.194649	8.05664	20.8692	0.0920147	-8.25129	
-0.242736	8.02918	20.9305	0.100091	-8.27191	
-0.290823	8.04978	20.876	0.106148	-8.3406	
-0.311432	8.06351	20.9305	0.0977835	-8.37494	
-0.325171	8.09098	20.9441	0.120859	-8.41615	
-0.290823	8.07038	20.9305	0.137589	-8.3612	
-0.256475	8.07038	20.9236	0.124897	-8.32685	
-0.277084	8.05664	20.9373	0.127205	-8.33373	
-0.318302	8.04291	20.9713	0.141627	-8.36121	
-0.332041	8.09784	20.9917	0.156338	-8.42988	
-0.366389	8.08411	21.019	0.146819	-8.4505	
-0.332041	8.08411	20.9441	0.145954	-8.41615	
-0.290823	8.09098	20.9849	0.158357	-8.3818	
-0.311432	8.07038	20.9849	0.156626	-8.38181	
-0.35265	8.00171	20.9781	0.169894	-8.35436	
-0.359519	8.06351	20.9713	0.158934	-8.42303	
-0.277084	7.96738	21.0871	0.154895	-8.24446	
-0.311432	8.01545	20.9781	0.153453	-8.32688	
-0.318302	7.98798	21.0394	0.174509	-8.30628	
-0.277084	7.95365	20.9849	0.153742	-8.23073	
-0.311432	7.87812	21.0258	0.147684	-8.18955	
-0.277084	7.93305	21.0462	0.142204	-8.21013	
-0.290823	7.92618	21.0735	0.129224	-8.217	
-0.215258	7.85752	21.0258	0.131243	-8.07277	
-0.249606	7.89185	21.1143	0.117109	-8.14145	
-0.249606	7.89185	21.1007	0.0995142	-8.14145	
-0.222127	7.83005	21.0803	0.106725	-8.05218	
-0.194649	7.85065	21.1007	0.0845151	-8.0453	
-0.16717	7.80259	21.0871	0.0819192	-7.96976	
-0.16717	7.74079	21.1484	0.0738427	-7.90796	
-0.119083	7.72019	21.1348	0.0585552	-7.83927	
-0.112214	7.74079	21.1484	0.0709583	-7.853	
-0.0984745	7.65839	21.1007	0.0539401	-7.75686	
-0.105344	7.60346	21.162	0.0403833	-7.7088	
-0.0160393	7.59659	21.1552	0.0262496	-7.61263	
-0.0091697	7.56913	21.1143	0.00865452	-7.5783	
0.0114391	7.46613	21.1688	0.00692386	-7.45469	
0.0251783	7.48673	21.128	-0.00172944	-7.46155	
0.0663959	7.43866	21.1416	-0.0173054	-7.37227	
0.0595263	7.40433	21.162	-0.0193245	-7.3448	
0.0526567	7.3906	21.1552	-0.024228	-7.33794	
0.114483	7.33567	21.162	-0.0337467	-7.22118	
0.16257	7.31507	21.162	-0.0498995	-7.1525	
0.183179	7.27387	21.1211	-0.0801861	-7.09069	
0.210657	7.25327	21.1484	-0.110761	-7.04261	
0.265614	7.2464	21.1211	-0.135567	-6.98079	
0.279353	7.2052	21.1348	-0.152297	-6.92585	
0.293093	7.23267	21.1348	-0.158354	-6.93958	
0.279353	7.21207	21.1211	-0.153451	-6.93272	
0.265614	7.17087	21.1348	-0.166142	-6.90526	
0.251875	7.1846	21.1075	-0.1647	-6.93273	
0.306832	7.164	21.128	-0.169892	-6.85717	
0.251875	7.15714	21.0667	-0.186333	-6.90526	
0.293093	7.17774	21.0871	-0.178257	-6.88464	
0.251875	7.14341	21.1007	-0.176238	-6.89153	
0.238136	7.164	21.0598	-0.174219	-6.92587	
0.279353	7.12967	21.1007	-0.181141	-6.85032	
0.279353	7.14341	21.0394	-0.158931	-6.86405	
0.272484	7.164	21.0054	-0.156047	-6.89152	
0.272484	7.12281	21.0394	-0.18316	-6.85032	
0.258745	7.19147	21.0122	-0.177968	-6.93273	
0.238136	7.21894	21.0598	-0.169315	-6.9808	
0.279353	7.19834	21.0258	-0.159796	-6.91898	
0.203788	7.23954	21.0122	-0.166719	-7.03575	
0.299962	7.2258	20.9986	-0.171623	-6.92584	
0.210657	7.2464	20.9849	-0.160373	-7.03574	
0.313701	7.267	20.9441	-0.152297	-6.9533	
0.272484	7.2464	20.9781	-0.152008	-6.97392	
0.258745	7.26014	20.9849	-0.16845	-7.00139	
0.265614	7.28073	20.9713	-0.169027	-7.01512	
0.279353	7.31507	20.9645	-0.175661	-7.03571	
0.238136	7.36313	20.8419	-0.175084	-7.125	
0.34118	7.37	20.9032	-0.162392	-7.02882	
0.245005	7.4112	20.8555	-0.178545	-7.16619	
0.272484	7.40433	20.8351	-0.177391	-7.13185	
0.272484	7.44553	20.8692	-0.177968	-7.17305	
0.238136	7.53479	20.8079	-0.212293	-7.29666	
0.313701	7.55539	20.8623	-0.191814	-7.24169	
0.286223	7.56913	20.7738	-0.17768	-7.2829	
0.258745	7.65839	20.8283	-0.182583	-7.39964	
0.293093	7.69959	20.8011	-0.191525	-7.4065	
0.313701	7.72705	20.7738	-0.179411	-7.41335	
0.313701	7.77512	20.7466	-0.182007	-7.46142	
0.286223	7.76139	20.7261	-0.197871	-7.47516	
0.238136	7.85752	20.6989	-0.198448	-7.61938	
0.293093	7.83005	20.7534	-0.174507	-7.53696	
0.33431	7.87125	20.6853	-0.137875	-7.53694	
0.245005	7.80945	20.6444	-0.163546	-7.56445	
0.299962	7.83692	20.7125	-0.162969	-7.53696	
0.313701	7.80259	20.6989	-0.20739	-7.48888	
0.320571	7.86438	20.6785	-0.187775	-7.54381	
0.272484	7.83692	20.6785	-0.164412	-7.56443	
0.224397	7.80259	20.6717	-0.163546	-7.57819	
0.251875	7.85065	20.6717	-0.145086	-7.59878	
0.231266	7.83005	20.6989	-0.156335	-7.59878	
0.238136	7.81632	20.6444	-0.172488	-7.57818	
0.210657	7.80259	20.6512	-0.164123	-7.59193	
0.203788	7.83692	20.624	-0.141048	-7.63313	
0.203788	7.80259	20.6376	-0.128068	-7.5988	
0.203788	7.83005	20.6104	-0.124029	-7.62626	
0.258745	7.82318	20.6172	-0.15547	-7.56444	
0.203788	7.83692	20.6172	-0.149989	-7.63313	
0.293093	7.84378	20.5695	-0.147682	-7.55069	
0.258745	7.80945	20.5967	-0.13874	-7.55071	
0.293093	7.85065	20.5627	-0.134413	-7.55756	
0.238136	7.87125	20.6036	-0.154028	-7.63311	
0.258745	7.87125	20.5695	-0.154893	-7.6125	
0.217527	7.85752	20.5355	-0.160085	-7.63999	
0.272484	7.90558	20.5355	-0.160373	-7.6331	
0.210657	7.88498	20.5627	-0.128933	-7.67432	
0.245005	7.96738	20.481	-0.141336	-7.72237	
0.293093	7.93991	20.515	-0.163546	-7.64682	
0.265614	8.00171	20.4742	-0.154604	-7.7361	
0.217527	8.05664	20.4537	-0.137298	-7.83912	
0.238136	8.09784	20.4878	-0.152297	-7.85971	
0.196918	8.10471	20.5286	-0.143067	-7.90779	
0.224397	8.20084	20.4333	-0.152585	-7.97644	
0.141961	8.21457	20.4129	-0.141913	-8.07261	
0.196918	8.2489	20.4469	-0.131241	-8.05199	
0.203788	8.29697	20.4197	-0.132971	-8.09318	
0.217527	8.36563	20.4537	-0.113069	-8.14811	
0.210657	8.42057	20.4537	-0.105569	-8.20991	
0.141961	8.42743	20.3992	-0.115088	-8.28547	
0.148831	8.53043	20.3924	-0.128356	-8.3816	
0.141961	8.57849	20.3856	-0.117395	-8.43653	
0.148831	8.61969	20.4265	-0.110761	-8.47086	
0.183179	8.67462	20.3856	-0.098358	-8.49145	
0.183179	8.62656	20.3924	-0.100666	-8.44338	
0.135092	8.71582	20.3311	-0.0882625	-8.58073	
0.148831	8.67462	20.3311	-0.0902816	-8.52579	
0.100744	8.72269	20.3175	-0.0807629	-8.62195	
0.0732655	8.68149	20.3175	-0.0793207	-8.60823	
0.100744	8.68836	20.2903	-0.0822052	-8.58761	
0.0870047	8.79822	20.3311	-0.0770132	-8.71122	
0.16257	8.76389	20.2494	-0.0738403	-8.60132	
0.100744	8.81882	20.263	-0.0764363	-8.71808	
0.16257	8.77762	20.229	-0.075571	-8.61505	
0.0870047	8.80509	20.229	-0.0721096	-8.71808	
0.0801351	8.86689	20.2494	-0.0700905	-8.78675	
0.183179	8.90808	20.1677	-0.0747056	-8.72491	
0.121353	8.95615	20.2017	-0.0758594	-8.8348	
0.100744	8.97675	20.1813	-0.0715328	-8.87601	
0.107613	9.01108	20.1268	-0.0735519	-8.90347	
0.0870047	9.03855	20.1405	-0.0698021	-8.95154	
0.107613	9.03168	20.12	-0.062591	-8.92407	
0.0320479	9.06601	20.1132	-0.0530724	-9.03396	
0.0526567	9.10035	20.12	-0.0429769	-9.04769	
-0.0023001	9.11408	20.0928	-0.0343236	-9.11638	
-0.0091697	9.10721	20.0723	-0.0256702	-9.11638	
-0.0297785	9.10035	20.0383	-0.0181707	-9.13012	
-0.0229089	9.10721	20.0383	-0.0112481	-9.13012	
-0.0297785	9.13468	20.0383	-0.00634454	-9.16446	
-0.0091697	9.16901	20.0179	-0.00692143	-9.17818	
-0.0229089	9.21707	20.0383	-0.00634454	-9.23998	
-0.0366481	9.20334	20.0042	-0.0034601	-9.23999	
-0.0366481	9.15528	19.9838	0.00317409	-9.19192	
-0.0916049	9.20334	19.9498	0.0103852	-9.29495	
-0.0847353	9.18961	20.0247	0.0222114	-9.27434	
-0.0641265	9.21021	19.943	0.0268265	-9.27433	
-0.139692	9.25827	19.977	0.0320184	-9.39797	
-0.153431	9.19648	19.9225	0.0383642	-9.34991	
-0.105344	9.21021	19.9361	0.0464406	-9.31555	
-0.119083	9.21021	19.9361	0.051921	-9.32929	
-0.139692	9.19648	19.9566	0.049325	-9.33617	
-0.119083	9.21707	19.9089	0.0438446	-9.33616	
-0.146562	9.23081	19.9089	0.0481713	-9.37737	
-0.119083	9.21021	19.9089	0.0582668	-9.32929	
-0.125953	9.18961	19.9021	0.0599975	-9.31556	
-0.132822	9.15528	19.9157	0.0536517	-9.2881	
-0.0847353	9.13468	19.8612	0.0452868	-9.21941	
-0.119083	9.14841	19.8953	0.0400949	-9.26749	
-0.0847353	9.10721	19.8476	0.0351913	-9.19195	
-0.0503873	9.12781	19.8612	0.0282687	-9.1782	
-0.0297785	9.10035	19.868	0.036922	-9.13012	
-0.0916049	9.07288	19.8476	0.0230767	-9.16448	
-0.0503873	9.08661	19.834	0.021346	-9.137	
-0.0847353	9.01108	19.8204	0.00980829	-9.09582	
-0.0435177	9.00421	19.9021	0.00980829	-9.04773	
-0.0503873	8.94242	19.7999	0.00951985	-8.9928	
-0.0503873	8.90808	19.7931	0.00951985	-8.95847	
-0.0366481	8.88062	19.7659	0.00461631	-8.91727	
-0.0091697	8.86689	19.7727	-0.00461388	-8.87606	
-0.0160393	8.77076	19.8272	-0.00692143	-8.78679	
0.0045695	8.77076	19.8272	-0.0103827	-8.76619	
0.0732655	8.64029	19.8272	-0.0100943	-8.56703	
0.0595263	8.63343	19.8136	-0.0112481	-8.5739	
0.0457871	8.63343	19.7386	-0.0149978	-8.58764	
0.0251783	8.5579	19.7727	-0.0178823	-8.53272	
0.0251783	8.44117	19.7318	-0.0291316	-8.41599	
0.135092	8.46863	19.7727	-0.0343236	-8.33354	
0.0801351	8.35877	19.7455	-0.0458613	-8.27863	
0.0938743	8.30384	19.7114	-0.0533608	-8.20996	
0.0663959	8.23517	19.7386	-0.0634563	-8.16878	
0.0732655	8.22831	19.7046	-0.0686483	-8.15504	
0.0663959	8.16651	19.7386	-0.0698021	-8.10011	
0.107613	8.09098	19.7318	-0.0648986	-7.98336	
0.0801351	8.07724	19.6705	-0.059995	-7.99711	
0.0457871	8.04291	19.691	-0.052207	-7.99712	
0.0251783	7.95365	19.6637	-0.0461497	-7.92847	
0.0732655	7.93991	19.6433	-0.0380733	-7.86665	
0.0183087	7.89185	19.691	-0.0282662	-7.87354	
-0.0023001	7.85752	19.6978	-0.0239396	-7.85982	
-0.0091697	7.82318	19.6842	-0.0161516	-7.83235	
0.0183087	7.82318	19.6705	-0.00894053	-7.80488	
-0.0229089	7.75452	19.6978	-0.00230633	-7.77743	
-0.0435177	7.75452	19.6229	-0.00432543	-7.79804	
-0.0435177	7.72019	19.7182	-0.00230633	-7.76371	
-0.0916049	7.66526	19.6773	-0.000864113	-7.75686	
-0.0916049	7.67899	19.691	0.0051932	-7.77059	
-0.0709961	7.65839	19.6501	0.0158656	-7.72939	
-0.146562	7.63779	19.6637	0.0253842	-7.78435	
-0.153431	7.61032	19.7114	0.0308647	-7.76376	
-0.125953	7.58972	19.6229	0.0389411	-7.71568	
-0.119083	7.52106	19.6978	0.0496135	-7.64014	
-0.153431	7.56226	19.6229	0.0585552	-7.71569	
-0.146562	7.49359	19.6773	0.0550939	-7.64016	
-0.105344	7.473	19.691	0.054517	-7.57834	
-0.187779	7.473	19.6569	0.0576899	-7.66077	
-0.160301	7.41806	19.691	0.0660548	-7.57836	
-0.194649	7.47986	19.6978	0.0698045	-7.67451	
-0.132822	7.45926	19.7114	0.0695161	-7.59208	
-0.201518	7.43866	19.7386	0.0574015	-7.64018	
-0.16717	7.39746	19.7182	0.0686508	-7.56463	
-0.201518	7.42493	19.725	0.070093	-7.62645	
-0.187779	7.39746	19.7659	0.0793232	-7.58524	
-0.201518	7.47986	19.7182	0.0787463	-7.68138	
-0.201518	7.45926	19.7659	0.0660548	-7.66078	
-0.201518	7.473	19.7727	0.072689	-7.67451	
-0.139692	7.45926	19.7659	0.0738427	-7.59895	
-0.139692	7.47986	19.7863	0.0856689	-7.61955	
-0.18091	7.45926	19.7591	0.0775925	-7.64017	
-0.160301	7.50046	19.7863	0.0755734	-7.66076	
-0.160301	7.50733	19.7931	0.0692276	-7.66763	
-0.201518	7.44553	19.8272	0.0732658	-7.64705	
-0.16717	7.45926	19.7999	0.0819192	-7.62643	
-0.187779	7.41806	19.8544	0.0848036	-7.60584	
-0.194649	7.3906	19.8612	0.0833614	-7.58525	
-0.215258	7.3494	19.8544	0.0937453	-7.56466	
-0.146562	7.3494	19.8612	0.0923031	-7.49596	
-0.263345	7.29447	19.8885	0.0787463	-7.55781	
-0.208388	7.29447	19.9225	0.0897071	-7.50286	
-0.249606	7.23954	19.9702	0.0940338	-7.48914	
-0.201518	7.17087	19.9838	0.101245	-7.37239	
-0.194649	7.19147	19.9498	0.0923031	-7.38612	
-0.228997	7.15714	19.9974	0.101533	-7.38614	
-0.263345	7.17087	20.0383	0.101533	-7.43422	
-0.215258	7.10221	20.0247	0.0995142	-7.31746	
-0.201518	7.10221	20.0451	0.105283	-7.30373	
-0.242736	7.04727	20.0587	0.113936	-7.29001	
-0.228997	7.04727	20.0996	0.0974951	-7.27627	
-0.160301	7.05414	20.1268	0.0894187	-7.21444	
-0.194649	6.97861	20.1268	0.095476	-7.17326	
-0.208388	7.01981	20.1677	0.0989373	-7.2282	
-0.160301	6.97861	20.1677	0.0940338	-7.13891	
-0.16717	6.96488	20.1813	0.0873996	-7.13205	
-0.18091	6.98548	20.1881	0.0868227	-7.16639	
-0.201518	6.97174	20.2494	0.0816307	-7.17326	
-0.153431	7.02668	20.2562	0.0879765	-7.18011	
-0.201518	7.05414	20.2767	0.0862458	-7.25566	
-0.18091	7.04041	20.2835	0.0986489	-7.22132	
-0.194649	7.10221	20.3175	0.0775925	-7.29686	
-0.194649	7.03354	20.3039	0.0764387	-7.22819	
-0.201518	7.10907	20.3448	0.0744196	-7.31059	
-0.17404	7.12281	20.3516	0.0853805	-7.29685	
-0.187779	7.15714	20.3652	0.0755734	-7.34492	
-0.194649	7.164	20.3992	0.0911493	-7.35865	
-0.208388	7.17087	20.4401	0.102399	-7.37926	
-0.208388	7.23267	20.4265	0.0885534	-7.44106	
-0.263345	7.2258	20.4742	0.108744	-7.48915	
-0.256475	7.3082	20.4878	0.105283	-7.56468	
-0.290823	7.32193	20.4537	0.108168	-7.61276	
-0.270214	7.3906	20.5218	0.128647	-7.66081	
-0.297693	7.4112	20.5695	0.136723	-7.70889	
-0.242736	7.4524	20.5423	0.123167	-7.69513	
-0.249606	7.4318	20.5627	0.109033	-7.6814	
-0.290823	7.46613	20.6172	0.133839	-7.75695	
-0.290823	7.49359	20.5899	0.153742	-7.78442	
-0.311432	7.47986	20.624	0.162683	-7.79129	
-0.311432	7.4318	20.6172	0.158934	-7.74323	
-0.33891	7.46613	20.6172	0.142492	-7.80504	
-0.311432	7.43866	20.6921	0.147973	-7.75009	
-0.33891	7.47986	20.6444	0.159222	-7.81877	
-0.33891	7.43866	20.7398	0.177105	-7.77757	
-0.359519	7.49359	20.7261	0.16326	-7.85311	
-0.34578	7.4524	20.6921	0.165279	-7.79818	
-0.332041	7.52106	20.767	0.158645	-7.8531	
-0.318302	7.47986	20.7193	0.132108	-7.79816	
-0.332041	7.54166	20.733	0.162106	-7.8737	
-0.359519	7.54853	20.733	0.154318	-7.90805	
-0.421346	7.55539	20.7398	0.181432	-7.97674	
-0.359519	7.51419	20.7874	0.174509	-7.87371	
-0.393867	7.58286	20.7261	0.154607	-7.97673	
-0.448824	7.52793	20.7874	0.174509	-7.97675	
-0.476302	7.56226	20.767	0.182586	-8.03856	
-0.469433	7.52106	20.7738	0.188932	-7.99049	
-0.462563	7.55539	20.7602	0.207392	-8.01796	
-0.435085	7.54166	20.7534	0.209988	-7.97674	
-0.51752	7.51419	20.8147	0.206527	-8.03171	
-0.551868	7.52106	20.8215	0.244313	-8.07293	
-0.490042	7.54853	20.8419	0.2596	-8.03857	
-0.565607	7.53479	20.8351	0.265369	-8.1004	
-0.544998	7.50733	20.8419	0.231044	-8.05233	
-0.538129	7.47986	20.9032	0.254408	-8.01799	
-0.503781	7.44553	20.876	0.250082	-7.94931	
-0.593086	7.4524	20.8828	0.276907	-8.04548	
-0.620564	7.45926	20.8964	0.279214	-8.07983	
-0.544998	7.42493	20.91	0.264792	-7.96993	
-0.565607	7.40433	20.91	0.288733	-7.96994	
-0.606825	7.32193	20.9032	0.292194	-7.92876	
-0.620564	7.3288	20.9645	0.297386	-7.94936	
-0.579346	7.267	20.9509	0.271715	-7.84635	
-0.613694	7.32193	20.9441	0.27085	-7.93563	
-0.599955	7.2464	20.9917	0.29681	-7.84636	
-0.579346	7.21207	21.019	0.326519	-7.79142	
-0.668651	7.19147	21.0258	0.320462	-7.86012	
-0.599955	7.11594	21.0462	0.287868	-7.71589	
-0.593086	7.06101	21.019	0.253255	-7.65409	
-0.586216	7.03354	21.0054	0.268254	-7.61976	
-0.620564	6.95801	21.1211	0.290752	-7.57858	
-0.654912	6.93055	21.053	0.285272	-7.58546	
-0.558738	6.92368	21.1211	0.289598	-7.48242	
-0.52439	6.90308	21.0871	0.242294	-7.42747	
-0.490042	6.86188	21.1075	0.195566	-7.35192	
-0.565607	6.75202	21.0939	0.24114	-7.31762	
-0.599955	6.69022	21.1552	0.301136	-7.29017	
-0.558738	6.70395	21.1688	0.30777	-7.26269	
-0.51752	6.58722	21.2437	0.275753	-7.10474	
-0.476302	6.53229	21.1961	0.22441	-7.00859	
-0.490042	6.45676	21.2369	0.243447	-6.9468	
-0.462563	6.42929	21.2097	0.257581	-6.89186	
-0.400737	6.3469	21.2301	0.236813	-6.74763	
-0.455694	6.2851	21.2369	0.216045	-6.74079	
-0.496911	6.25763	21.2505	0.240275	-6.75454	
-0.428215	6.18897	21.2573	0.231333	-6.61718	
-0.421346	6.09284	21.2573	0.158934	-6.51418	
-0.332041	6.05851	21.2301	0.177105	-6.39055	
-0.34578	5.94864	21.271	0.169029	-6.29442	
-0.332041	5.94178	21.3186	0.17076	-6.27382	
-0.373258	5.90744	21.2573	0.195566	-6.2807	
-0.366389	5.77011	21.2982	0.171625	-6.1365	
-0.311432	5.70145	21.2914	0.140473	-6.01288	
-0.290823	5.68085	21.3323	0.149703	-5.97167	
-0.325171	5.60532	21.2982	0.146819	-5.93049	
-0.325171	5.59159	21.3255	0.133551	-5.91676	
-0.366389	5.54352	21.3255	0.153742	-5.90991	
-0.33891	5.50232	21.3459	0.156338	-5.84123	
-0.33891	5.50232	21.3663	0.154318	-5.84123	
-0.332041	5.35126	21.3663	0.137877	-5.6833	
-0.35265	5.37186	21.3867	0.168164	-5.72451	
-0.325171	5.33753	21.3391	0.188932	-5.6627	
-0.332041	5.29633	21.3255	0.165568	-5.62837	
-0.414476	5.25513	21.4072	0.138166	-5.66961	
-0.304562	5.24826	21.4276	0.15951	-5.55283	
-0.393867	5.2414	21.414	0.162972	-5.63526	
-0.359519	5.20706	21.3936	0.174798	-5.56658	
-0.386998	5.17273	21.4276	0.193547	-5.55973	
-0.393867	5.18647	21.448	0.176529	-5.58033	
-0.373258	5.10407	21.448	0.169318	-5.47733	
-0.380128	5.06974	21.4276	0.15028	-5.44986	
-0.332041	5.04914	21.4548	0.182297	-5.38118	
-0.435085	5.0354	21.448	0.174509	-5.47049	
-0.359519	5.0766	21.4821	0.153742	-5.43612	
-0.359519	4.98047	21.4753	0.157491	-5.33999	
-0.332041	4.9942	21.5025	0.182009	-5.32625	
-0.373258	4.95987	21.4889	0.186336	-5.33313	
-0.35265	4.97361	21.5025	0.18547	-5.32626	
-0.380128	4.98047	21.5434	0.171048	-5.3606	
-0.435085	4.96674	21.5093	0.181432	-5.40182	
-0.435085	4.93927	21.4957	0.169894	-5.37436	
-0.400737	4.94614	21.557	0.181432	-5.34688	
-0.386998	4.96674	21.5706	0.177394	-5.35374	
-0.386998	4.98047	21.5434	0.177105	-5.36747	
-0.366389	4.97361	21.557	0.181721	-5.33999	
-0.400737	4.98734	21.5842	0.192393	-5.38808	
-0.462563	4.9942	21.5638	0.200181	-5.45677	
-0.386998	4.95301	21.5774	0.177682	-5.34	
-0.414476	4.94614	21.5366	0.188066	-5.36062	
-0.393867	4.90494	21.6319	0.19297	-5.29881	
-0.490042	4.96674	21.6183	0.210276	-5.45678	
-0.386998	4.94614	21.6455	0.214315	-5.33314	
-0.455694	4.86374	21.6319	0.204796	-5.31944	
-0.435085	4.91181	21.6728	0.186624	-5.34689	
-0.435085	4.84314	21.7136	0.207969	-5.27823	
-0.496911	4.80881	21.6932	0.234506	-5.30572	
-0.462563	4.77448	21.7068	0.213161	-5.23704	
-0.469433	4.75388	21.7273	0.214315	-5.22331	
-0.448824	4.74701	21.7	0.199027	-5.19584	
-0.52439	4.66461	21.6932	0.197873	-5.189	
-0.51752	4.62342	21.7681	0.244313	-5.14094	
-0.558738	4.59595	21.7545	0.232775	-5.15469	
-0.490042	4.54789	21.7409	0.230179	-5.03793	
-0.503781	4.49295	21.7477	0.213738	-4.99673	
-0.483172	4.51355	21.7545	0.214026	-4.99672	
-0.496911	4.47922	21.8158	0.246909	-4.97613	
-0.496911	4.41056	21.7954	0.262485	-4.90747	
-0.52439	4.41056	21.8362	0.266811	-4.93495	
-0.538129	4.36249	21.8158	0.221814	-4.90062	
-0.51752	4.32129	21.8635	0.233929	-4.83881	
-0.51065	4.28696	21.8498	0.227583	-4.79761	
-0.531259	4.28696	21.8567	0.246043	-4.81822	
-0.476302	4.27323	21.8226	0.243736	-4.74953	
-0.52439	4.22516	21.8567	0.225852	-4.74955	
-0.51065	4.23889	21.9043	0.2022	-4.74955	
-0.531259	4.23203	21.9043	0.243736	-4.76329	
-0.558738	4.20456	21.9384	0.243736	-4.7633	
-0.551868	4.21143	21.9316	0.262196	-4.7633	
-0.544998	4.20456	21.9656	0.221814	-4.74956	
-0.551868	4.22516	21.8975	0.247197	-4.77703	
-0.565607	4.19083	21.8907	0.262485	-4.75644	
-0.490042	4.1565	21.9724	0.259312	-4.64654	
-0.551868	4.2183	21.952	0.251524	-4.77016	
-0.531259	4.16336	21.952	0.265658	-4.69462	
-0.593086	4.19083	21.9929	0.251812	-4.78392	
-0.538129	4.20456	22.0133	0.246043	-4.74269	
-0.68926	4.2183	22.0201	0.289022	-4.90756	
-0.627434	4.22516	22.0269	0.275176	-4.8526	
-0.675521	4.25949	22.0678	0.283253	-4.93501	
-0.627434	4.23889	22.1018	0.296521	-4.86633	
-0.620564	4.25263	22.0746	0.279503	-4.87319	
-0.599955	4.30756	22.0405	0.296521	-4.90751	
-0.599955	4.33503	22.0814	0.283253	-4.93498	
-0.613694	4.34189	22.1018	0.277195	-4.95559	
-0.668651	4.31443	22.0678	0.29479	-4.98308	
-0.661782	4.32816	22.1155	0.310943	-4.98994	
-0.68239	4.32129	22.0542	0.31152	-5.00368	
-0.565607	4.34189	22.0814	0.299982	-4.9075	
-0.586216	4.28696	22.0678	0.288733	-4.87318	
-0.627434	4.30756	22.1359	0.270561	-4.93499	
-0.668651	4.30756	22.095	0.318154	-4.97621	
-0.648042	4.28009	22.1086	0.274311	-4.92814	
-0.586216	4.29383	22.0678	0.28556	-4.88004	
-0.538129	4.27323	22.1427	0.264792	-4.81136	
-0.593086	4.30756	22.1018	0.277195	-4.90064	
-0.593086	4.27323	22.1767	0.288156	-4.86631	
-0.661782	4.25949	22.095	0.245467	-4.92128	
-0.613694	4.26636	22.0882	0.282964	-4.88005	
-0.661782	4.32129	22.1427	0.289598	-4.98307	
-0.599955	4.30069	22.1155	0.276042	-4.90065	
-0.648042	4.27323	22.0746	0.290175	-4.92127	
-0.69613	4.23203	22.0473	0.286714	-4.92816	
-0.634303	4.27323	22.0746	0.297675	-4.90753	
-0.661782	4.25949	22.1359	0.274599	-4.92128	
-0.723608	4.28009	22.0405	0.314981	-5.0037	
-0.709869	4.26636	22.0814	0.299406	-4.97623	
-0.69613	4.22516	22.0814	0.349018	-4.92129	
-0.68926	4.21143	22.095	0.337768	-4.90069	
-0.716738	4.21143	22.0814	0.340076	-4.92817	
-0.627434	4.1771	22.1086	0.330269	-4.80453	
-0.69613	4.1153	22.0542	0.335749	-4.81143	
-0.744217	4.0947	22.0746	0.310655	-4.83892	
-0.806043	4.10157	22.0405	0.332	-4.90761	
-0.751086	4.0947	22.0814	0.353344	-4.84579	
-0.730478	4.0741	22.0405	0.365747	-4.80458	
-0.771695	4.03977	22.0269	0.341807	-4.81146	
-0.702999	3.98484	22.061	0.340364	-4.68784	
-0.661782	3.98484	22.0542	0.329404	-4.64662	
-0.675521	3.97797	22.0201	0.279214	-4.65349	
-0.709869	3.89557	21.9792	0.329692	-4.60544	
-0.771695	3.84751	22.0405	0.377285	-4.6192	
-0.792304	3.79944	22.0065	0.38565	-4.59175	
-0.812913	3.78571	22.0065	0.377285	-4.59862	
-0.737347	3.71704	22.0337	0.341807	-4.45439	
-0.723608	3.76511	22.0201	0.320173	-4.48872	
-0.709869	3.66211	22.0337	0.300271	-4.37198	
-0.778565	3.57285	22.0201	0.346422	-4.35141	
-0.751086	3.59345	22.0065	0.351325	-4.34453	
-0.675521	3.50418	21.9724	0.340941	-4.1797	
-0.648042	3.46985	21.9724	0.301136	-4.11789	
-0.627434	3.45612	21.9452	0.286714	-4.08355	
-0.620564	3.37372	21.9588	0.295079	-3.99429	
-0.586216	3.37372	21.952	0.293637	-3.95994	
-0.709869	3.29132	21.9316	0.28383	-4.00119	
-0.641173	3.23639	21.8975	0.301136	-3.87756	
-0.613694	3.16086	21.918	0.301136	-3.77456	
-0.737347	3.18833	21.9316	0.305174	-3.92567	
-0.620564	3.08533	21.9588	0.290752	-3.70589	
-0.620564	3.0098	21.8839	0.278926	-3.63036	
-0.599955	2.948	21.918	0.247486	-3.54796	
-0.503781	2.9274	21.8975	0.258447	-3.43118	
-0.606825	2.85187	21.8498	0.242582	-3.4587	
-0.490042	2.79694	21.9043	0.25412	-3.28698	
-0.490042	2.83127	21.8294	0.247774	-3.32131	
-0.441954	2.74887	21.8362	0.242871	-3.19083	
-0.490042	2.72141	21.809	0.226141	-3.21145	
-0.435085	2.68708	21.809	0.220372	-3.12216	
-0.428215	2.63214	21.8294	0.205085	-3.06036	
-0.441954	2.58408	21.7749	0.194701	-3.02603	
-0.400737	2.51541	21.7681	0.192105	-2.91615	
-0.325171	2.49481	21.7681	0.200181	-2.81999	
-0.400737	2.48795	21.7136	0.218353	-2.88869	
-0.366389	2.46048	21.7205	0.184028	-2.82687	
-0.407606	2.49481	21.6932	0.162106	-2.90242	
-0.33891	2.43988	21.6864	0.175375	-2.77879	
-0.34578	2.41928	21.6728	0.188643	-2.76506	
-0.34578	2.35749	21.6387	0.162972	-2.70327	
-0.400737	2.37809	21.6251	0.156049	-2.77882	
-0.380128	2.34375	21.6523	0.145088	-2.72388	
-0.380128	2.36435	21.6455	0.156338	-2.74448	
-0.366389	2.33002	21.5774	0.171625	-2.69641	
-0.380128	2.34375	21.6183	0.159222	-2.72388	
-0.35265	2.30255	21.5706	0.16701	-2.6552	
-0.34578	2.30942	21.5638	0.172779	-2.6552	
-0.297693	2.25449	21.5366	0.170183	-2.55218	
-0.325171	2.26822	21.4889	0.175375	-2.59339	
-0.270214	2.31629	21.5434	0.156626	-2.5865	
-0.393867	2.25449	21.523	0.154895	-2.64836	
-0.311432	2.24762	21.523	0.153742	-2.55905	
-0.366389	2.25449	21.4821	0.161818	-2.62088	
-0.297693	2.28882	21.4889	0.136723	-2.58651	
-0.304562	2.24762	21.4753	0.144511	-2.55219	
-0.332041	2.26822	21.4753	0.150569	-2.60026	
-0.359519	2.28195	21.4548	0.15951	-2.64147	
-0.297693	2.30942	21.4276	0.150569	-2.60711	
-0.318302	2.26822	21.3867	0.140473	-2.58652	
-0.304562	2.29569	21.4208	0.141915	-2.60025	
-0.332041	2.30255	21.4004	0.14855	-2.6346	
-0.277084	2.30255	21.4412	0.145665	-2.57964	
-0.33891	2.30255	21.3459	0.147973	-2.64146	
-0.304562	2.29569	21.3936	0.126916	-2.60025	
-0.311432	2.28882	21.3186	0.144511	-2.60025	
-0.283954	2.30942	21.3663	0.151146	-2.59337	
-0.359519	2.33002	21.2982	0.174509	-2.68954	
-0.35265	2.29569	21.3391	0.155761	-2.64834	
-0.386998	2.37809	21.2914	0.149415	-2.76508	
-0.318302	2.35749	21.3118	0.169029	-2.67579	
-0.386998	2.31629	21.2846	0.169318	-2.70328	
-0.35265	2.32315	21.2846	0.167875	-2.6758	
-0.373258	2.29569	21.271	0.199604	-2.66895	
-0.380128	2.30942	21.2505	0.19297	-2.68955	
-0.441954	2.26822	21.2233	0.173356	-2.71018	
-0.400737	2.27509	21.2778	0.181432	-2.67583	
-0.359519	2.27509	21.2165	0.171048	-2.63461	
-0.448824	2.20642	21.2505	0.193835	-2.65525	
-0.400737	2.19269	21.2437	0.201912	-2.59343	
-0.366389	2.19269	21.2573	0.176529	-2.55908	
-0.33891	2.18582	21.2505	0.174221	-2.52473	
-0.366389	2.12403	21.2029	0.184028	-2.49042	
-0.33891	2.18582	21.2165	0.153453	-2.52473	
-0.373258	2.15149	21.2369	0.175375	-2.52475	
-0.304562	2.15149	21.1961	0.160087	-2.45605	
-0.256475	2.11716	21.2165	0.145377	-2.37364	
-0.33891	2.08969	21.162	0.154318	-2.4286	
-0.297693	2.15149	21.2097	0.148261	-2.44919	
-0.311432	2.15836	21.2029	0.143934	-2.46979	
-0.215258	2.17209	21.2097	0.134127	-2.38735	
-0.242736	2.13776	21.1892	0.119128	-2.3805	
-0.201518	2.15836	21.2165	0.114802	-2.35988	
-0.215258	2.19269	21.1484	0.100956	-2.40795	
-0.125953	2.20642	21.1484	0.102399	-2.33238	
-0.119083	2.24762	21.2097	0.0845151	-2.36671	
-0.125953	2.24076	21.1484	0.0631703	-2.36671	
-0.112214	2.25449	21.162	0.0651894	-2.3667	
-0.146562	2.31629	21.1484	0.0574015	-2.46285	
-0.139692	2.37809	21.1892	0.0542286	-2.51778	
-0.0847353	2.41242	21.1484	0.0663432	-2.49715	
-0.0778657	2.44675	21.1892	0.0542286	-2.52462	
-0.0778657	2.47422	21.1961	0.0311531	-2.55208	
-0.0847353	2.45362	21.2029	0.0245189	-2.53835	
-0.0916049	2.54288	21.1688	0.0268265	-2.63449	
-0.112214	2.55661	21.1961	0.0224998	-2.66883	
-0.0572569	2.58408	21.1824	0.0219229	-2.64134	
-0.0435177	2.68708	21.2029	0.0158656	-2.73059	
-0.0229089	2.66648	21.1688	0.0124043	-2.68939	
-0.0229089	2.75574	21.2165	0.00894296	-2.77865	
-0.0091697	2.78321	21.2097	0.00173188	-2.79238	
-0.0091697	2.89307	21.2301	0.00375098	-2.90224	
-0.0435177	3.00293	21.2369	0.00202032	-3.04645	
0.0320479	3.00293	21.1961	-0.00403699	-2.97088	
0.0183087	3.0716	21.2437	-0.00634454	-3.05329	
0.0595263	3.14026	21.1824	-0.00980586	-3.08074	
0.0114391	3.14713	21.2029	-0.00951742	-3.13569	
0.0183087	3.16773	21.162	-0.0106712	-3.14942	
-0.0297785	3.23639	21.2301	-0.0080752	-3.26617	
0.0389175	3.22953	21.2233	-0.00980586	-3.19061	
-0.0641265	3.27759	21.2029	-0.0112481	-3.34172	
0.0457871	3.27759	21.1892	-0.0115365	-3.2318	
0.0457871	3.33939	21.2505	-0.0147094	-3.2936	
0.0114391	3.39432	21.2301	-0.0170169	-3.38288	
0.0457871	3.38059	21.2097	-0.021632	-3.3348	
0.0663959	3.47672	21.1892	-0.0276894	-3.41032	
0.0938743	3.46985	21.1552	-0.0334582	-3.37598	
0.107613	3.49732	21.2029	-0.0357658	-3.3897	
0.100744	3.57285	21.1688	-0.0424	-3.4721	
0.0045695	3.56598	21.1688	-0.0481688	-3.56141	
0.107613	3.64838	21.1211	-0.0550915	-3.54077	
0.107613	3.63465	21.1552	-0.0536493	-3.52703	
0.0801351	3.66211	21.1348	-0.0565337	-3.58198	
0.121353	3.67585	21.1484	-0.0504764	-3.55449	
0.100744	3.74451	21.1348	-0.0542261	-3.64377	
0.0595263	3.70331	21.1143	-0.0519186	-3.64378	
0.0045695	3.72391	21.0598	-0.0519186	-3.71934	
0.0526567	3.75138	21.0735	-0.0461497	-3.69872	
0.114483	3.75824	21.1075	-0.0438422	-3.64376	
0.135092	3.79944	21.053	-0.0473035	-3.66435	
0.0732655	3.79258	21.0462	-0.0539377	-3.71931	
0.0938743	3.78571	21.0326	-0.0605719	-3.69183	
0.128222	3.83377	20.9917	-0.0663408	-3.70555	
0.100744	3.86811	21.0258	-0.0680714	-3.76736	
0.107613	3.89557	20.9917	-0.0721096	-3.78796	
0.183179	3.9299	21.019	-0.0798976	-3.74673	
0.196918	3.92304	20.9849	-0.093166	-3.72612	
0.203788	3.9711	20.9441	-0.101531	-3.76731	
0.217527	3.9711	20.9032	-0.109896	-3.75358	
0.265614	3.99857	20.9236	-0.110761	-3.73295	
0.231266	4.06037	20.9032	-0.127491	-3.8291	
0.258745	4.04663	20.8419	-0.140471	-3.78789	
0.258745	4.1153	20.9032	-0.148836	-3.85655	
0.327441	4.12216	20.876	-0.159508	-3.79472	
0.327441	4.1153	20.8147	-0.1722	-3.78786	
0.313701	4.20456	20.7942	-0.188641	-3.89086	
0.348049	4.1977	20.8079	-0.20912	-3.84965	
0.409876	4.23889	20.7602	-0.216908	-3.82902	
0.464833	4.26636	20.733	-0.235657	-3.80153	
0.457963	4.33503	20.733	-0.234215	-3.87706	
0.444224	4.32129	20.6989	-0.234215	-3.87707	
0.492311	4.34189	20.6512	-0.221235	-3.84958	
0.499181	4.41742	20.6172	-0.301134	-3.91824	
0.51292	4.47235	20.5899	-0.347862	-3.95943	
0.533529	4.48609	20.5627	-0.358534	-3.95256	
0.588485	4.56162	20.5355	-0.267386	-3.97313	
0.609094	4.55475	20.4673	-0.306903	-3.94566	
0.622833	4.51355	20.4673	-0.383052	-3.89072	
0.691529	4.65088	20.4333	-0.412473	-3.95935	
0.657181	4.65088	20.4605	-0.352477	-3.9937	
0.698399	4.65775	20.3311	-0.336901	-3.95935	
0.794573	4.71268	20.3243	-0.396609	-3.91811	
0.890748	4.79508	20.3788	-0.446798	-3.90433	
0.925096	4.80881	20.2903	-0.491795	-3.88371	
0.993792	4.88434	20.2494	-0.381609	-3.89055	
0.897617	4.90494	20.2562	-0.400358	-4.00732	
0.877009	5.0148	20.2222	-0.495833	-4.1378	
0.904487	5.00794	20.1609	-0.545445	-4.10345	
1.0144	5.0766	20.1336	-0.562463	-4.0622	
1.03501	5.14527	20.1132	-0.471892	-4.11026	
0.952574	5.21393	20.0792	-0.447663	-4.26136	
1.07623	5.35813	20.0519	-0.502179	-4.2819	
1.15866	5.35813	20.0247	-0.585827	-4.19946	
1.18614	5.46799	20.0587	-0.680437	-4.28185	
1.10371	5.57099	20.0111	-0.556406	-4.46728	
1.16553	5.66712	20.0042	-0.560733	-4.50159	
1.15179	5.72205	20.0383	-0.560156	-4.57026	
1.20675	5.84565	20.0179	-0.660246	-4.6389	
1.13118	5.96237	20.0111	-0.685629	-4.83119	
1.21362	6.0997	19.9906	-0.62419	-4.88609	
1.25484	6.2233	19.9974	-0.557272	-4.96846	
1.26171	6.3057	19.9838	-0.664284	-5.04399	
1.1724	6.44303	20.0315	-0.697167	-5.27063	
1.22049	6.51169	20.0519	-0.733799	-5.2912	
1.24797	6.66962	20.0383	-0.708127	-5.42165	
1.28918	6.80008	20.0383	-0.661688	-5.5109	
1.24797	6.93741	20.0587	-0.684764	-5.68944	
1.16553	7.07474	20.1064	-0.684475	-5.90921	
1.39223	7.19834	20.1064	-0.716204	-5.80611	
1.22736	7.28073	20.1336	-0.698032	-6.05338	
1.31666	7.49359	20.1336	-0.665149	-6.17693	
1.32353	7.54853	20.1677	-0.753125	-6.22499	
1.52275	7.70645	20.2017	-0.708993	-6.1837	
1.27545	7.80945	20.2358	-0.681879	-6.53401	
1.29605	7.93305	20.3107	-0.72428	-6.63699	
1.25484	8.09098	20.3039	-0.79466	-6.83614	
1.21362	8.20771	20.3243	-0.77995	-6.99409	
1.52275	8.3107	20.3924	-0.782834	-6.78795	
1.41971	8.48236	20.3856	-0.726299	-7.06266	
1.47466	8.59909	20.4401	-0.730914	-7.12443	
1.30979	8.68836	20.4946	-0.68909	-7.37856	
1.33727	8.83255	20.5218	-0.696013	-7.49528	
1.40597	8.91495	20.5559	-0.693417	-7.50898	
1.37849	9.05228	20.5967	-0.765816	-7.67379	
1.40597	9.18961	20.5763	-0.732068	-7.78364	
1.29605	9.26514	20.5763	-0.748221	-7.96909	
1.11058	9.375	20.6853	-0.730626	-8.26443	
1.37849	9.42993	20.6853	-0.709858	-8.05145	
1.24797	9.5192	20.7602	-0.738702	-8.27123	
1.39223	9.62906	20.7806	-0.693705	-8.23683	
1.19301	9.70459	20.8555	-0.703801	-8.51158	
1.3991	9.79386	20.8828	-0.702935	-8.39476	
1.29605	9.81446	20.8692	-0.7188	-8.5184	
1.51588	9.86252	20.9168	-0.752259	-8.34664	
1.23423	9.93805	20.9373	-0.725434	-8.70382	
1.11058	9.97925	21.0054	-0.653612	-8.86868	
1.18614	10.0548	20.9849	-0.677841	-8.86864	
1.16553	10.0479	20.9577	-0.642074	-8.88238	
1.40597	10.096	21.0326	-0.680437	-8.69001	
1.35788	10.1028	21.1007	-0.702935	-8.74497	
1.10371	10.0891	21.0735	-0.725722	-8.98541	
1.36475	10.1578	21.1075	-0.589577	-8.79303	
0.959444	10.2196	21.1143	-0.634863	-9.26013	
1.15866	10.1578	21.1416	-0.784565	-8.99912	
1.12431	10.2539	21.1892	-0.680725	-9.1296	
1.11058	10.2127	21.2029	-0.6539	-9.10214	
1.11744	10.2814	21.1484	-0.621018	-9.16393	
1.06936	10.2127	21.1892	-0.649862	-9.14335	
1.10371	10.247	21.2029	-0.631978	-9.14334	
1.06249	10.2402	21.2573	-0.620152	-9.17769	
1.04875	10.2608	21.2029	-0.641785	-9.21203	
1.00066	10.2402	21.2573	-0.639189	-9.23952	
0.945705	10.2333	21.2369	-0.601403	-9.28761	
0.945705	10.2402	21.2097	-0.528716	-9.29447	
0.980053	10.2539	21.2778	-0.582366	-9.27386	
0.966313	10.2333	21.2778	-0.490641	-9.267	
0.877009	10.2264	21.1756	-0.554676	-9.34944	
0.931965	10.2264	21.2165	-0.506217	-9.29448	
0.952574	10.247	21.2233	-0.569675	-9.29447	
0.897617	10.2402	21.2029	-0.568809	-9.34256	
0.835791	10.247	21.2165	-0.541696	-9.41125	
0.952574	10.2127	21.1756	-0.460066	-9.26014	
0.945705	10.2333	21.2369	-0.513717	-9.28761	
0.746486	10.2264	21.1688	-0.425453	-9.47996	
0.890748	10.199	21.2233	-0.449971	-9.30823	
0.8564	10.2333	21.1824	-0.428626	-9.37691	
0.746486	10.2539	21.1824	-0.401512	-9.50742	
0.705269	10.2608	21.1484	-0.44449	-9.55551	
0.719008	10.247	21.2097	-0.397474	-9.52804	
0.725877	10.247	21.1688	-0.409012	-9.52117	
0.773965	10.2882	21.1552	-0.409588	-9.51428	
0.705269	10.247	21.1075	-0.404396	-9.54177	
0.636573	10.1509	21.1211	-0.413627	-9.51434	
0.670921	10.1372	21.0667	-0.384205	-9.46626	
0.554137	10.1028	21.1007	-0.332863	-9.54871	
0.643442	10.0067	21.0598	-0.338054	-9.36327	
0.547268	10.0067	21.019	-0.295076	-9.45945	
0.602225	9.95179	21.0054	-0.372091	-9.34956	
0.519789	9.88999	21.0258	-0.368629	-9.3702	
0.554137	9.86939	20.9645	-0.305172	-9.31525	
0.499181	9.84879	20.9236	-0.275174	-9.34961	
0.51292	9.80759	20.9305	-0.222677	-9.29467	
0.403006	9.75952	20.9032	-0.25556	-9.35652	
0.499181	9.75266	20.8692	-0.248637	-9.25348	
0.430485	9.71833	20.8692	-0.297672	-9.28784	
0.409876	9.74579	20.8283	-0.25556	-9.33592	
0.437354	9.71833	20.7466	-0.251233	-9.28097	
0.396137	9.68399	20.7602	-0.269117	-9.28786	
0.354919	9.60846	20.7125	-0.256137	-9.25354	
0.403006	9.57413	20.7125	-0.201621	-9.17112	
0.299962	9.59473	20.6785	-0.176238	-9.29477	
0.293093	9.55353	20.6172	-0.188352	-9.26044	
0.279353	9.48487	20.5967	-0.185179	-9.20551	
0.251875	9.45053	20.5627	-0.17018	-9.19866	
0.224397	9.42307	20.5491	-0.139605	-9.19867	
0.203788	9.3544	20.5423	-0.117107	-9.15062	
0.203788	9.34067	20.4742	-0.107588	-9.13688	
0.121353	9.25141	20.515	-0.104704	-9.13005	
0.0870047	9.21021	20.4061	-0.112492	-9.1232	
0.155701	9.21021	20.4537	-0.09057	-9.05451	
0.107613	9.12094	20.3311	-0.0698021	-9.01333	
0.0526567	9.08661	20.338	-0.0545146	-9.03396	
0.0663959	9.03168	20.3448	-0.0498995	-8.96528	
0.0732655	9.02481	20.3107	-0.0513417	-8.95155	
0.0526567	9.00421	20.2971	-0.0461497	-8.95156	
-0.0023001	8.97675	20.3448	-0.0323044	-8.97905	
-0.0023001	8.97675	20.2903	-0.0250934	-8.97905	
0.0114391	8.86689	20.2426	-0.0250934	-8.85545	
0.0320479	8.83942	20.2358	-0.0262471	-8.80737	
-0.0091697	8.78449	20.229	-0.0204783	-8.79366	
0.0045695	8.73642	20.2426	-0.0147094	-8.73185	
0.0526567	8.75016	20.2017	-0.0132672	-8.6975	
0.0251783	8.72269	20.1813	-0.0126903	-8.69751	
-0.0572569	8.68149	20.12	-0.00980586	-8.73875	
0.0114391	8.62656	20.1405	-0.0115365	-8.61512	
-0.0229089	8.59223	20.1132	-0.0100943	-8.61514	
0.0389175	8.50296	20.1268	-0.0121134	-8.46405	
-0.0023001	8.52356	20.1132	-0.011825	-8.52586	
0.0595263	8.4343	20.0928	-0.0132672	-8.37477	
0.0183087	8.44117	20.0655	-0.0170169	-8.42286	
0.0595263	8.37937	20.0315	-0.0210552	-8.31984	
0.0320479	8.36563	20.0383	-0.0239396	-8.33359	
0.0732655	8.3313	20.0179	-0.0265356	-8.25804	
0.0251783	8.27637	20.0042	-0.0305738	-8.25119	
0.0938743	8.2489	19.9974	-0.0317276	-8.15503	
0.0595263	8.17337	19.9702	-0.0299969	-8.11385	
0.100744	8.15277	19.9702	-0.0343236	-8.05203	
0.100744	8.04291	19.9498	-0.0403809	-7.94217	
0.0389175	8.00171	19.9157	-0.0455728	-7.96279	
0.128222	7.98111	19.943	-0.0524955	-7.85289	
0.0732655	7.89872	19.9498	-0.0617257	-7.82545	
0.121353	7.82318	19.9361	-0.072975	-7.70183	
0.155701	7.81632	19.8408	-0.0793207	-7.66062	
0.238136	7.72019	19.8612	-0.0937429	-7.48205	
0.231266	7.70645	19.868	-0.104992	-7.47519	
0.224397	7.61719	19.8136	-0.121145	-7.39279	
0.245005	7.62406	19.8136	-0.128356	-7.37905	
0.224397	7.59659	19.8408	-0.137586	-7.37219	
0.293093	7.54853	19.7863	-0.149124	-7.25543	
0.258745	7.46613	19.7727	-0.153739	-7.20738	
0.245005	7.44553	19.7795	-0.163835	-7.20052	
0.293093	7.46613	19.7182	-0.170469	-7.17304	
0.293093	7.40433	19.7386	-0.167008	-7.11124	
0.258745	7.36313	19.7455	-0.164988	-7.10439	
0.224397	7.34253	19.6705	-0.150278	-7.11814	
0.272484	7.33567	19.6705	-0.154028	-7.06318	
0.203788	7.3288	19.7318	-0.158931	-7.12501	
0.231266	7.29447	19.6433	-0.160662	-7.0632	
0.196918	7.26014	19.6569	-0.143932	-7.06322	
0.203788	7.25327	19.6365	-0.140759	-7.04948	
0.196918	7.26014	19.6433	-0.119414	-7.06322	
0.190049	7.21207	19.6501	-0.12028	-7.02202	
0.141961	7.23954	19.6297	-0.126914	-7.09757	
0.265614	7.23267	19.6229	-0.123453	-6.96705	
0.245005	7.23267	19.6161	-0.136721	-6.98766	
0.148831	7.2258	19.6024	-0.11105	-7.07697	
0.16257	7.15714	19.6092	-0.104992	-6.99457	
0.16257	7.2258	19.6161	-0.113357	-7.06323	
0.148831	7.17774	19.6092	-0.111915	-7.02891	
0.183179	7.17774	19.5343	-0.106434	-6.99456	
0.176309	7.1846	19.5616	-0.104127	-7.00829	
0.155701	7.1846	19.548	-0.0839358	-7.0289	
0.155701	7.21207	19.5071	-0.0894162	-7.05637	
0.135092	7.21207	19.5275	-0.0882625	-7.07698	
0.121353	7.23954	19.4867	-0.0899931	-7.11818	
0.148831	7.21894	19.548	-0.0876856	-7.07011	
0.121353	7.23954	19.4867	-0.0793207	-7.11818	
0.141961	7.267	19.5207	-0.0706674	-7.12504	
0.107613	7.23954	19.5071	-0.0833589	-7.13192	
0.128222	7.28073	19.4799	-0.0778785	-7.15251	
0.141961	7.2876	19.4867	-0.0735519	-7.14564	
0.100744	7.28073	19.4799	-0.0674945	-7.17999	
0.114483	7.3082	19.4799	-0.0605719	-7.19372	
0.107613	7.2876	19.4662	-0.0591297	-7.17999	
0.0870047	7.3288	19.4594	-0.0545146	-7.24179	
0.0732655	7.3494	19.4867	-0.0539377	-7.27613	
0.0732655	7.33567	19.4594	-0.0527839	-7.2624	
0.0938743	7.34253	19.4254	-0.0461497	-7.24866	
0.0663959	7.32193	19.473	-0.0418231	-7.25554	
0.0045695	7.36313	19.4594	-0.0374964	-7.35856	
0.0251783	7.2876	19.4867	-0.0380733	-7.26242	
0.0663959	7.30133	19.4799	-0.0369195	-7.23494	
0.0251783	7.23954	19.4867	-0.0314391	-7.21436	
0.0457871	7.28073	19.4799	-0.0271125	-7.23495	
-0.0229089	7.28073	19.4526	-0.0222089	-7.30364	
0.0114391	7.25327	19.4799	-0.0230743	-7.24183	
0.0183087	7.2258	19.4799	-0.0219205	-7.20749	
0.0457871	7.21207	19.4799	-0.0187476	-7.16628	
-0.0023001	7.2052	19.4799	-0.0161516	-7.2075	
-0.0229089	7.17087	19.5003	-0.0124019	-7.19378	
-0.0023001	7.15027	19.5003	-0.0124019	-7.15257	
0.0389175	7.10907	19.5275	-0.0100943	-7.07016	
0.0320479	7.11594	19.4935	-0.0124019	-7.08389	
-0.0297785	7.13654	19.4867	-0.0080752	-7.16632	
0.0045695	7.10907	19.4594	-0.00980586	-7.1045	
0.0320479	7.10907	19.5071	-0.0115365	-7.07703	
0.0114391	7.13654	19.439	-0.00951742	-7.1251	
0.0457871	7.12281	19.4935	-0.00922897	-7.07702	
0.0389175	7.15027	19.5071	-0.011825	-7.11135	
0.0183087	7.10907	19.4935	-0.0112481	-7.09076	
0.0114391	7.12281	19.4594	-0.0115365	-7.11137	
0.0045695	7.164	19.5343	-0.0129787	-7.15944	
-0.0091697	7.19147	19.5139	-0.0124019	-7.20064	
0.0251783	7.164	19.473	-0.0155747	-7.13883	
0.0595263	7.21894	19.4935	-0.0187476	-7.15941	
-0.0023001	7.267	19.5003	-0.0204783	-7.2693	
0.0045695	7.3082	19.5003	-0.024228	-7.30363	
0.0114391	7.32193	19.5139	-0.0256702	-7.31049	
0.0114391	7.36313	19.548	-0.0245165	-7.35169	
0.0526567	7.38373	19.5752	-0.0245165	-7.33107	
0.0251783	7.41806	19.5956	-0.0230743	-7.39289	
0.0114391	7.50733	19.548	-0.0201898	-7.49589	
-0.0023001	7.51419	19.5684	-0.0167285	-7.51649	
-0.0160393	7.56913	19.5752	-0.0164401	-7.58516	
0.0320479	7.57599	19.5548	-0.0132672	-7.54394	
0.0045695	7.63779	19.582	-0.0112481	-7.63322	
-0.0572569	7.72705	19.6365	-0.0100943	-7.78431	
-0.0297785	7.77512	19.5684	-0.00951742	-7.8049	
0.0114391	7.74079	19.6024	-0.00922897	-7.72935	
-0.0229089	7.74079	19.5616	-0.0060561	-7.7637	
-0.0503873	7.77512	19.5684	-0.00576765	-7.82551	
-0.0503873	7.73392	19.6161	-0.00576765	-7.78431	
-0.0503873	7.75452	19.5888	0.000866547	-7.80491	
-0.0984745	7.82318	19.5684	0.00692386	-7.92166	
-0.0778657	7.78199	19.582	0.0135581	-7.85985	
-0.0503873	7.79572	19.5752	0.01875	-7.84611	
-0.0572569	7.83005	19.6024	0.0248074	-7.88731	
-0.0641265	7.84378	19.6365	0.0256727	-7.90791	
-0.0503873	7.91931	19.6501	0.0323069	-7.9697	
-0.0916049	7.87812	19.6229	0.0337491	-7.96972	
-0.0984745	7.89872	19.548	0.036922	-7.99719	
-0.125953	7.93305	19.5752	0.0305762	-8.059	
-0.105344	8.02231	19.5139	0.0392295	-8.12766	
-0.16717	7.97425	19.5139	0.0455753	-8.14142	
-0.119083	8.00171	19.5343	0.0657663	-8.1208	
-0.18091	8.02918	19.5343	0.0715352	-8.21009	
-0.17404	8.04291	19.5548	0.0709583	-8.21695	
-0.235866	8.07038	19.5139	0.0758618	-8.30624	
-0.228997	8.08411	19.4799	0.101822	-8.31311	
-0.304562	8.07038	19.4935	0.116821	-8.37494	
-0.318302	8.00858	19.4867	0.113359	-8.32688	
-0.297693	8.05664	19.4594	0.126916	-8.35434	
-0.297693	8.07038	19.4799	0.148838	-8.36807	
-0.33891	8.07038	19.4594	0.156338	-8.40929	
-0.304562	8.12531	19.4322	0.154895	-8.42987	
-0.332041	8.04978	19.4186	0.154607	-8.38182	
-0.359519	8.09098	19.4594	0.173356	-8.4505	
-0.332041	8.08411	19.4799	0.176817	-8.41615	
-0.380128	8.05664	19.3981	0.180278	-8.43677	
-0.414476	8.04978	19.439	0.181721	-8.46425	
-0.407606	8.03604	19.3913	0.187778	-8.44365	
-0.414476	7.98111	19.439	0.187489	-8.39559	
-0.441954	7.94678	19.4117	0.199604	-8.38874	
-0.441954	7.98111	19.4186	0.21518	-8.42307	
-0.52439	7.95365	19.4254	0.225276	-8.47804	
-0.414476	7.88498	19.4662	0.227583	-8.29946	
-0.448824	7.89185	19.4322	0.2022	-8.34067	
-0.455694	7.85065	19.3981	0.210276	-8.30634	
-0.51065	7.80259	19.4117	0.195277	-8.31324	
-0.52439	7.77512	19.4322	0.258447	-8.29951	
-0.606825	7.72705	19.3641	0.253255	-8.33388	
-0.531259	7.67212	19.3641	0.245467	-8.20338	
-0.483172	7.63779	19.3845	0.235371	-8.12096	
-0.572477	7.63092	19.3573	0.237102	-8.2034	
-0.572477	7.53479	19.3981	0.264504	-8.10727	
-0.496911	7.52106	19.3913	0.233929	-8.01797	
-0.565607	7.473	19.3641	0.246043	-8.0386	
-0.586216	7.35627	19.3845	0.27258	-7.94248	
-0.579346	7.3288	19.3709	0.282387	-7.90815	
-0.620564	7.2876	19.3845	0.298829	-7.90816	
-0.634303	7.12967	19.3573	0.304597	-7.76398	
-0.613694	7.07474	19.3232	0.267965	-7.68844	
-0.68926	7.02668	19.3368	0.317001	-7.71594	
-0.634303	6.90995	19.3436	0.317866	-7.54425	
-0.606825	6.83441	19.3436	0.303444	-7.44124	
-0.627434	6.77948	19.3164	0.309501	-7.40692	
-0.68926	6.66962	19.2892	0.293348	-7.35888	
-0.641173	6.55976	19.2551	0.313539	-7.20093	
-0.613694	6.43616	19.2755	0.300271	-7.04985	
-0.606825	6.3469	19.2279	0.26335	-6.95372	
-0.641173	6.25763	19.2347	0.301136	-6.89881	
-0.572477	6.19583	19.1938	0.29681	-6.76831	
-0.613694	6.05851	19.153	0.301425	-6.6722	
-0.641173	5.96924	19.1938	0.263639	-6.61041	
-0.648042	5.88684	19.1325	0.299406	-6.53489	
-0.648042	5.80445	19.1666	0.296521	-6.45249	
-0.668651	5.71518	19.078	0.303444	-6.38383	
-0.668651	5.64652	19.1121	0.267388	-6.31517	
-0.641173	5.52292	19.0712	0.279214	-6.16409	
-0.668651	5.52979	19.0236	0.299982	-6.19844	
-0.599955	5.45426	19.0576	0.304597	-6.05421	
-0.661782	5.36499	18.9963	0.294502	-6.02677	
-0.668651	5.37186	18.9963	0.294502	-6.04051	
-0.709869	5.27573	19.0372	0.306617	-5.9856	
-0.613694	5.2002	18.9963	0.289598	-5.81389	
-0.634303	5.14527	18.9418	0.31152	-5.77957	
-0.668651	5.10407	18.9418	0.324212	-5.77272	
-0.778565	5.0354	18.9214	0.304886	-5.81397	
-0.668651	4.9942	18.901	0.293925	-5.66286	
-0.648042	4.94614	18.8601	0.310943	-5.59418	
-0.654912	4.91867	18.8942	0.257004	-5.57359	
-0.654912	4.89121	18.8942	0.320462	-5.54612	
-0.744217	4.82254	18.8942	0.351325	-5.56676	
-0.771695	4.74701	18.8329	0.31902	-5.51871	
-0.716738	4.74701	18.8261	0.350172	-5.46375	
-0.764826	4.68521	18.8056	0.321616	-5.45004	
-0.702999	4.68521	18.7852	0.329981	-5.38821	
-0.716738	4.64402	18.758	0.295944	-5.36075	
-0.661782	4.59595	18.7852	0.315847	-5.25773	
-0.641173	4.58908	18.7784	0.309789	-5.23026	
-0.702999	4.56162	18.7716	0.309789	-5.26462	
-0.709869	4.49982	18.7443	0.333153	-5.20969	
-0.840391	4.46549	18.7648	0.35796	-5.30588	
-0.771695	4.45862	18.7239	0.369786	-5.23032	
-0.751086	4.47235	18.6899	0.320462	-5.22344	
-0.757956	4.45175	18.7171	0.337768	-5.20971	
-0.737347	4.39682	18.6967	0.346133	-5.13417	
-0.723608	4.38996	18.7239	0.329692	-5.11356	
-0.627434	4.33503	18.7035	0.348152	-4.96246	
-0.68239	4.35562	18.6762	0.344691	-5.03801	
-0.702999	4.32129	18.6762	0.344114	-5.02429	
-0.771695	4.30069	18.6558	0.361709	-5.07239	
-0.888478	4.24576	18.6626	0.369209	-5.13424	
-0.799174	4.21143	18.6217	0.388535	-5.0106	
-0.819782	4.19083	18.6354	0.349306	-5.01061	
-0.68926	4.12903	18.6286	0.339499	-4.81829	
-0.757956	4.10157	18.6626	0.363152	-4.85952	
-0.702999	4.0535	18.6422	0.318731	-4.7565	
-0.812913	3.9917	18.649	0.362286	-4.80462	
-0.771695	3.9505	18.6217	0.404976	-4.7222	
-0.85413	3.91617	18.6354	0.325654	-4.7703	
-0.716738	3.89557	18.6422	0.314693	-4.61231	
-0.68239	3.85437	18.683	0.335461	-4.53676	
-0.771695	3.84064	18.7103	0.353056	-4.61234	
-0.771695	3.82004	18.6762	0.35046	-4.59174	
-0.812913	3.77198	18.7035	0.330557	-4.58489	
-0.764826	3.75138	18.7375	0.313828	-4.5162	
-0.675521	3.73764	18.7307	0.326519	-4.41316	
-0.69613	3.72391	18.6899	0.328827	-4.42004	
-0.716738	3.71704	18.7443	0.360267	-4.43378	
-0.716738	3.69644	18.758	0.323346	-4.41318	
-0.751086	3.68271	18.7852	0.335749	-4.4338	
-0.613694	3.68271	18.7852	0.32075	-4.29641	
-0.627434	3.65525	18.7784	0.293637	-4.28268	
-0.593086	3.68271	18.7852	0.316712	-4.2758	
-0.723608	3.66898	18.8192	0.304597	-4.39259	
-0.620564	3.69644	18.8056	0.300271	-4.31701	
-0.579346	3.66211	18.8397	0.247486	-4.24146	
-0.565607	3.73078	18.8465	0.279214	-4.29638	
-0.593086	3.74451	18.8329	0.252678	-4.3376	
-0.648042	3.73764	18.8737	0.31527	-4.38569	
-0.51752	3.76511	18.935	0.260177	-4.28263	
-0.572477	3.80631	18.9146	0.229602	-4.37878	
-0.558738	3.86124	18.9282	0.28383	-4.41998	
-0.68926	3.85437	18.9486	0.279214	-4.54363	
-0.565607	3.85437	18.9963	0.28008	-4.41998	
-0.538129	3.89557	19.0236	0.264792	-4.4337	
-0.565607	3.93677	19.0372	0.287579	-4.50238	
-0.675521	3.92304	18.9759	0.279214	-4.59856	
-0.648042	3.9093	19.0849	0.270273	-4.55735	
-0.654912	4.06037	19.078	0.261331	-4.71528	
-0.641173	4.1359	19.0917	0.280945	-4.77707	
-0.606825	4.10157	19.1121	0.301425	-4.70839	
-0.620564	4.1153	19.1325	0.278638	-4.73586	
-0.620564	4.16336	19.1393	0.282964	-4.78393	
-0.558738	4.1977	19.0917	0.239121	-4.75643	
-0.613694	4.18396	19.1598	0.297963	-4.79766	
-0.675521	4.16336	19.2074	0.297675	-4.83888	
-0.661782	4.17023	19.2211	0.312962	-4.83201	
-0.661782	4.18396	19.2074	0.284983	-4.84574	
-0.606825	4.16336	19.2074	0.271715	-4.77019	
-0.51752	4.22516	19.3096	0.255274	-4.74268	
-0.51065	4.1977	19.2483	0.283541	-4.70835	
-0.496911	4.25263	19.2892	0.252101	-4.74954	
-0.565607	4.25263	19.2755	0.235948	-4.81823	
-0.613694	4.28009	19.2892	0.269407	-4.89379	
-0.565607	4.28696	19.33	0.271715	-4.85257	
-0.579346	4.28696	19.3368	0.25787	-4.86631	
-0.544998	4.32129	19.3436	0.250947	-4.86629	
-0.483172	4.32129	19.3777	0.248928	-4.80446	
-0.531259	4.38309	19.3505	0.262485	-4.91435	
-0.648042	4.37622	19.3777	0.247486	-5.02427	
-0.544998	4.36936	19.3981	0.262196	-4.91436	
-0.620564	4.33503	19.3913	0.271426	-4.95559	
-0.620564	4.35562	19.4458	0.269696	-4.97619	
-0.634303	4.33503	19.439	0.247774	-4.96933	
-0.648042	4.31443	19.4526	0.246043	-4.96247	
-0.572477	4.38996	19.473	0.270561	-4.96243	
-0.572477	4.37622	19.4594	0.275176	-4.9487	
-0.648042	4.34189	19.4935	0.33373	-4.98993	
-0.586216	4.33503	19.4935	0.267677	-4.92124	
-0.627434	4.32816	19.473	0.257581	-4.95559	
-0.620564	4.30756	19.5684	0.284406	-4.92812	
-0.654912	4.30069	19.5548	0.306905	-4.9556	
-0.641173	4.27323	19.5752	0.310078	-4.9144	
-0.68239	4.23203	19.548	0.237967	-4.91442	
-0.675521	4.1977	19.5956	0.304886	-4.87322	
-0.620564	4.17023	19.6297	0.313828	-4.79079	
-0.641173	4.20456	19.6161	0.295079	-4.84574	
-0.613694	4.1153	19.691	0.29854	-4.72899	
-0.68239	4.10843	19.7046	0.315847	-4.79082	
-0.606825	4.03977	19.7182	0.297963	-4.64659	
-0.68926	4.0535	19.6842	0.312962	-4.74276	
-0.68239	3.99857	19.725	0.277195	-4.68096	
-0.648042	3.96424	19.7591	0.32075	-4.61228	
-0.627434	3.93677	19.7182	0.298252	-4.5642	
-0.654912	3.94364	19.7318	0.289598	-4.59855	
-0.599955	3.88184	19.7659	0.27258	-4.48179	
-0.538129	3.83377	19.7455	0.270561	-4.3719	
-0.579346	3.79944	19.8136	0.234217	-4.37879	
-0.565607	3.78571	19.834	0.275176	-4.35132	
-0.531259	3.77198	19.8408	0.243159	-4.30323	
-0.51752	3.75138	19.8067	0.23566	-4.2689	
-0.579346	3.72391	19.9157	0.266523	-4.30326	
-0.572477	3.61405	19.8817	0.228737	-4.18652	
-0.551868	3.53165	19.8476	0.224122	-4.08352	
-0.490042	3.54538	19.9089	0.252678	-4.03542	
-0.476302	3.51105	19.9021	0.25037	-3.98735	
-0.51752	3.42865	19.977	0.261043	-3.94617	
-0.490042	3.39432	19.943	0.237102	-3.88436	
-0.476302	3.35999	19.9838	0.223256	-3.83629	
-0.400737	3.29819	19.9293	0.196143	-3.69893	
-0.428215	3.25013	19.9838	0.23739	-3.67834	
-0.448824	3.23639	19.9566	0.197008	-3.68522	
-0.359519	3.12653	19.9906	0.166433	-3.48605	
-0.311432	3.17459	20.0111	0.151146	-3.48603	
-0.34578	3.09906	20.0042	0.162683	-3.44484	
-0.311432	3.06473	19.9702	0.180278	-3.37616	
-0.290823	3.0098	20.0587	0.154607	-3.30062	
-0.297693	2.98233	20.0655	0.144223	-3.28003	
-0.222127	2.948	20.0587	0.126628	-3.17013	
-0.249606	2.92054	20.0723	0.1373	-3.17014	
-0.249606	2.97547	20.0655	0.155184	-3.22507	
-0.304562	2.9068	20.0996	0.112494	-3.21136	
-0.283954	2.89994	20.0928	0.116532	-3.18389	
-0.290823	2.85874	20.1268	0.114513	-3.14956	
-0.235866	2.85874	20.1132	0.119128	-3.0946	
-0.222127	2.85874	20.1064	0.114225	-3.08086	
-0.256475	2.8244	20.1745	0.112494	-3.08088	
-0.235866	2.83127	20.1745	0.114225	-3.06714	
-0.18091	2.85187	20.1064	0.0920147	-3.03278	
-0.194649	2.83814	20.1064	0.0891302	-3.03279	
-0.17404	2.79694	20.1609	0.101822	-2.97098	
-0.256475	2.78321	20.1813	0.10211	-3.03968	
-0.249606	2.80381	20.1405	0.107879	-3.05341	
-0.215258	2.79007	20.1745	0.075285	-3.00533	
-0.222127	2.79007	20.1813	0.0879765	-3.0122	
-0.153431	2.8656	20.2086	0.0862458	-3.01903	
-0.187779	2.81754	20.2017	0.0865342	-3.00532	
-0.201518	2.83127	20.2154	0.0868227	-3.03279	
-0.119083	2.81754	20.2086	0.0709583	-2.93662	
-0.153431	2.80381	20.1677	0.0556708	-2.95724	
-0.112214	2.85187	20.229	0.0810538	-2.96408	
-0.139692	2.81754	20.2494	0.082496	-2.95723	
-0.17404	2.81754	20.2494	0.0703814	-2.99158	
-0.0847353	2.845	20.2494	0.0640357	-2.92974	
-0.153431	2.845	20.2154	0.0539401	-2.99844	
-0.105344	2.87247	20.2835	0.0582668	-2.97781	
-0.0984745	2.8862	20.2426	0.0473059	-2.98468	
-0.0984745	2.91367	20.2971	0.0432677	-3.01214	
-0.0778657	2.93427	20.3243	0.0389411	-3.01213	
-0.0229089	2.96173	20.2767	0.0346144	-2.98464	
-0.0435177	3.01667	20.2767	0.0314416	-3.06018	
-0.105344	2.98233	20.3243	0.0236536	-3.08768	
-0.105344	3.0304	20.2562	0.0121158	-3.13574	
-0.0229089	3.0716	20.3243	0.0170194	-3.09451	
-0.0297785	3.04413	20.3107	0.00836608	-3.07391	
-0.0229089	3.03726	20.3243	0.00317409	-3.06017	
-0.0160393	3.05786	20.3448	1.21691E-006	-3.0739	
-0.0160393	3.05786	20.3584	-0.00317166	-3.0739	
-0.0503873	3.07846	20.3243	-0.00317166	-3.12885	
0.0114391	3.07846	20.3584	-0.00778676	-3.06702	
0.0320479	3.08533	20.3584	-0.0132672	-3.05328	
0.0045695	3.0716	20.3992	-0.0135556	-3.06703	
-0.0297785	3.07846	20.3584	-0.0100943	-3.10824	
-0.0229089	3.08533	20.4061	-0.0112481	-3.10824	
0.0595263	3.11966	20.3856	-0.0121134	-3.06014	
0.0114391	3.16773	20.4129	-0.0138441	-3.15629	
0.0114391	3.1334	20.3856	-0.0175938	-3.12196	
0.0045695	3.10593	20.4061	-0.0196129	-3.10136	
0.0114391	3.10593	20.4197	-0.0207667	-3.09449	
0.0732655	3.17459	20.4469	-0.0236511	-3.10133	
0.0595263	3.08533	20.4401	-0.0288431	-3.0258	
0.0457871	3.17459	20.4401	-0.0323044	-3.12881	
0.0870047	3.17459	20.4605	-0.0369195	-3.08759	
0.0526567	3.18833	20.481	-0.0409578	-3.13567	
0.0801351	3.12653	20.4265	-0.0461497	-3.04639	
0.0938743	3.16773	20.4265	-0.0524955	-3.07385	
0.135092	3.22266	20.4333	-0.0579759	-3.08757	
0.190049	3.27759	20.4537	-0.0579759	-3.08754	
0.107613	3.31879	20.4878	-0.0643217	-3.21118	
0.107613	3.31192	20.4946	-0.067783	-3.20431	
0.148831	3.35999	20.4742	-0.0723981	-3.21116	
0.16944	3.35999	20.4537	-0.0761479	-3.19055	
0.0938743	3.43552	20.4605	-0.0842243	-3.34165	
0.114483	3.42865	20.4537	-0.0888394	-3.31417	
0.16257	3.54538	20.4673	-0.0925891	-3.38281	
0.155701	3.54538	20.5355	-0.0891278	-3.38968	
0.0801351	3.55225	20.4537	-0.0899931	-3.47211	
0.196918	3.57285	20.4946	-0.0908585	-3.37593	
0.16257	3.65525	20.4946	-0.0897047	-3.49268	
0.16257	3.68271	20.515	-0.0885509	-3.52014	
0.121353	3.74451	20.5286	-0.0876856	-3.62316	
0.114483	3.79258	20.5286	-0.0819167	-3.67809	
0.0870047	3.84751	20.5559	-0.0767247	-3.7605	
0.128222	3.86124	20.5763	-0.0749941	-3.73302	
0.148831	3.9917	20.5355	-0.0732634	-3.84287	
0.114483	4.00544	20.5831	-0.0726865	-3.89095	
0.107613	4.02603	20.5355	-0.0758594	-3.91842	
0.100744	4.06037	20.5082	-0.0773016	-3.95962	
0.0870047	4.10843	20.5695	-0.0715328	-4.02143	
0.107613	4.1565	20.5491	-0.0715328	-4.04888	
0.0870047	4.16336	20.5763	-0.0715328	-4.07636	
0.148831	4.16336	20.5491	-0.0741287	-4.01453	
0.114483	4.20456	20.5286	-0.0752825	-4.09008	
0.183179	4.26636	20.515	-0.0787438	-4.08318	
0.121353	4.27323	20.5082	-0.0778785	-4.15187	
0.128222	4.32816	20.5695	-0.0773016	-4.19994	
0.107613	4.31443	20.5627	-0.0816283	-4.20681	
0.135092	4.41742	20.5218	-0.0868203	-4.28233	
0.114483	4.38996	20.5491	-0.085378	-4.27547	
0.100744	4.49982	20.5218	-0.0810514	-4.39908	
0.0938743	4.49295	20.4946	-0.0833589	-4.39908	
0.128222	4.49295	20.4878	-0.0796092	-4.36473	
0.121353	4.53415	20.4605	-0.0856665	-4.4128	
0.100744	4.53415	20.481	-0.085378	-4.43341	
0.114483	4.54789	20.4878	-0.0764363	-4.4334	
0.0801351	4.56848	20.4401	-0.067783	-4.48835	
0.121353	4.63715	20.481	-0.0654754	-4.5158	
0.114483	4.66461	20.4537	-0.0585528	-4.55013	
0.107613	4.61655	20.3992	-0.0680714	-4.50894	
0.100744	4.65775	20.3924	-0.0657639	-4.557	
0.0801351	4.67835	20.3856	-0.0594181	-4.59821	
0.114483	4.77448	20.3516	-0.0663408	-4.66	
0.128222	4.77448	20.3992	-0.067783	-4.64626	
0.114483	4.69895	20.372	-0.0692252	-4.58446	
0.0526567	4.77448	20.372	-0.0623026	-4.72182	
0.135092	4.78134	20.3788	-0.0582644	-4.64625	
0.135092	4.73328	20.3788	-0.0657639	-4.59819	
0.114483	4.80194	20.3311	-0.0715328	-4.68746	
0.0938743	4.77448	20.3448	-0.0715328	-4.6806	
0.128222	4.80881	20.2971	-0.0646101	-4.68059	
0.0732655	4.83628	20.2698	-0.0631679	-4.76301	
0.0801351	4.80194	20.2358	-0.0735519	-4.72181	
0.121353	4.85001	20.2698	-0.0787438	-4.72866	
0.16257	4.85688	20.2426	-0.0842243	-4.69431	
0.128222	4.87061	20.2426	-0.0839358	-4.74239	
0.121353	4.85001	20.1949	-0.0819167	-4.72866	
0.176309	4.84314	20.2222	-0.0894162	-4.66683	
0.176309	4.88434	20.1813	-0.10355	-4.70803	
0.196918	4.87061	20.1813	-0.113069	-4.67369	
0.231266	4.93241	20.1405	-0.116818	-4.70114	
0.258745	4.97361	20.1473	-0.126337	-4.71486	
0.265614	4.95987	20.0928	-0.134125	-4.69426	
0.286223	4.98047	20.086	-0.154316	-4.69425	
0.258745	4.98734	20.1132	-0.173642	-4.72859	
0.361789	5.0148	20.1268	-0.17768	-4.65302	
0.258745	5.0148	20.0928	-0.184314	-4.75606	
0.293093	4.9942	20.0587	-0.187199	-4.70111	
0.354919	5.08347	20.0179	-0.223831	-4.72855	
0.34118	5.0766	20.0247	-0.215754	-4.73542	
0.382397	5.0766	19.9906	-0.210851	-4.6942	
0.375528	5.04914	19.9634	-0.236234	-4.67361	
0.416745	5.06287	20.0042	-0.254694	-4.64612	
0.409876	5.06974	19.9566	-0.306037	-4.65986	
0.499181	5.11093	19.8748	-0.265078	-4.61175	
0.547268	5.09034	19.943	-0.276328	-4.54307	
0.609094	5.0972	19.8953	-0.314691	-4.48811	
0.615964	5.14527	19.868	-0.310941	-4.5293	
0.609094	5.14527	19.8953	-0.309787	-4.53617	
0.643442	5.159	19.8544	-0.333728	-4.51556	
0.643442	5.16587	19.834	-0.336612	-4.52242	
0.629703	5.18647	19.8067	-0.3444	-4.55676	
0.732747	5.25513	19.7931	-0.325651	-4.52238	
0.67779	5.25513	19.7455	-0.35363	-4.57734	
0.767095	5.31693	19.7455	-0.346131	-4.54983	
0.725877	5.33066	19.6978	-0.384782	-4.60478	
0.753356	5.37873	19.7114	-0.372091	-4.62537	
0.780834	5.38559	19.6705	-0.473911	-4.60476	
0.691529	5.39246	19.6637	-0.424588	-4.70093	
0.787704	5.46112	19.6229	-0.37786	-4.67342	
0.732747	5.54352	19.6365	-0.428914	-4.81077	
0.760225	5.55725	19.5752	-0.361707	-4.79703	
0.801443	5.57099	19.5616	-0.417088	-4.76954	
0.787704	5.61219	19.5684	-0.446221	-4.82448	
0.712138	5.70832	19.5139	-0.423434	-4.99618	
0.753356	5.72205	19.473	-0.478815	-4.96869	
0.67779	5.72892	19.4662	-0.441606	-5.05113	
0.753356	5.78385	19.4117	-0.402377	-5.03049	
0.691529	5.85938	19.4117	-0.406704	-5.16785	
0.712138	5.90058	19.3845	-0.374687	-5.18844	
0.657181	5.86624	19.3232	-0.400647	-5.20906	
0.712138	5.93491	19.3641	-0.42603	-5.22277	
0.732747	5.97611	19.3641	-0.343823	-5.24336	
0.712138	6.01044	19.2892	-0.322479	-5.2983	
0.767095	6.01731	19.2755	-0.405839	-5.25021	
0.739617	6.09284	19.2687	-0.312383	-5.35322	
0.622833	6.13404	19.2551	-0.380456	-5.5112	
0.739617	6.11344	19.2074	-0.445644	-5.37382	
0.753356	6.16837	19.187	-0.411319	-5.41501	
0.746486	6.18897	19.2142	-0.410165	-5.44248	
0.767095	6.2645	19.153	-0.419107	-5.4974	
0.670921	6.31256	19.153	-0.421703	-5.64164	
0.719008	6.33316	19.0985	-0.342958	-5.61416	
0.664051	6.41556	19.1189	-0.383629	-5.75151	
0.732747	6.37436	19.078	-0.449105	-5.64162	
0.629703	6.40869	19.0508	-0.418819	-5.77899	
0.712138	6.44303	19.044	-0.40382	-5.73089	
0.650312	6.47736	18.9895	-0.424299	-5.82705	
0.760225	6.55976	18.9895	-0.350169	-5.79953	
0.68466	6.53229	18.9691	-0.329401	-5.84763	
0.670921	6.61469	18.9691	-0.376129	-5.94377	
0.664051	6.64902	18.9078	-0.402089	-5.98497	
0.712138	6.66275	18.9146	-0.35363	-5.95062	
0.670921	6.67649	18.8874	-0.348438	-6.00557	
0.698399	6.68335	18.8533	-0.363438	-5.98495	
0.670921	6.71769	18.8669	-0.364303	-6.04676	
0.650312	6.71769	18.8601	-0.367187	-6.06737	
0.67779	6.71082	18.8397	-0.399204	-6.03303	
0.705269	6.77948	18.8533	-0.389974	-6.07421	
0.657181	6.76575	18.8397	-0.385936	-6.10857	
0.650312	6.75202	18.8329	-0.34267	-6.10171	
0.664051	6.75888	18.8124	-0.385359	-6.09483	
0.636573	6.80695	18.8124	-0.380456	-6.17038	
0.643442	6.84128	18.7988	-0.299692	-6.19784	
0.478572	6.83441	18.7307	-0.311806	-6.35584	
0.595355	6.86875	18.792	-0.331132	-6.27339	
0.615964	6.84815	18.7103	-0.326228	-6.23218	
0.705269	6.87561	18.7103	-0.38709	-6.17034	
0.622833	6.89621	18.6626	-0.366899	-6.27338	
0.588485	6.86875	18.6967	-0.323055	-6.28026	
0.51292	6.90308	18.649	-0.266809	-6.39016	
0.567877	6.88935	18.6626	-0.308633	-6.32147	
0.615964	6.97174	18.649	-0.350169	-6.35578	
0.581616	6.99921	18.6149	-0.332286	-6.41759	
0.602225	6.99234	18.6354	-0.34065	-6.39012	
0.602225	7.01981	18.6013	-0.299403	-6.41758	
0.595355	7.04041	18.5945	-0.27402	-6.44505	
0.595355	7.06787	18.6354	-0.299692	-6.47252	
0.574746	7.13654	18.54	-0.348727	-6.56179	
0.464833	7.11594	18.5741	-0.365745	-6.65111	
0.554137	7.14341	18.5673	-0.325651	-6.58927	
0.526659	7.21894	18.506	-0.306903	-6.69228	
0.540398	7.23954	18.5128	-0.276039	-6.69914	
0.444224	7.3288	18.5332	-0.248637	-6.88458	
0.526659	7.33567	18.5128	-0.29998	-6.80901	
0.588485	7.39746	18.5264	-0.315556	-6.80898	
0.478572	7.4112	18.506	-0.291615	-6.93263	
0.485441	7.4524	18.4651	-0.227004	-6.96695	
0.444224	7.53479	18.4992	-0.235369	-7.09057	
0.499181	7.63092	18.5605	-0.261905	-7.13174	
0.485441	7.63092	18.5128	-0.287288	-7.14548	
0.499181	7.69959	18.5332	-0.281808	-7.20041	
0.444224	7.69959	18.4992	-0.221523	-7.25536	
0.430485	7.74079	18.4787	-0.268828	-7.3103	
0.485441	7.73392	18.4719	-0.267386	-7.24848	
0.403006	7.76825	18.4924	-0.215178	-7.36525	
0.403006	7.72019	18.4651	-0.233638	-7.31718	
0.368658	7.77512	18.4106	-0.222966	-7.40646	
0.409876	7.73392	18.4038	-0.234792	-7.32404	
0.423615	7.69959	18.4242	-0.244599	-7.27597	
0.416745	7.80259	18.4311	-0.220946	-7.38584	
0.430485	7.78199	18.4311	-0.221523	-7.3515	
0.416745	7.75452	18.3698	-0.233926	-7.33777	
0.389267	7.82318	18.397	-0.259021	-7.43392	
0.416745	7.89872	18.397	-0.243733	-7.48197	
0.423615	7.93305	18.3425	-0.193833	-7.50943	
0.382397	7.94678	18.3561	-0.188064	-7.56438	
0.354919	7.96738	18.3834	-0.224985	-7.61246	
0.348049	7.93991	18.3017	-0.224408	-7.59186	
0.368658	7.97425	18.3221	-0.23335	-7.60559	
0.299962	8.01545	18.288	-0.169315	-7.71548	
0.293093	8.00858	18.3017	-0.17768	-7.71549	
0.265614	8.07724	18.2608	-0.162104	-7.81163	
0.245005	8.00858	18.2336	-0.191525	-7.76357	
0.286223	8.02918	18.2608	-0.164412	-7.74295	
0.196918	8.00171	18.2949	-0.137586	-7.80479	
0.238136	8.04291	18.2336	-0.135856	-7.80478	
0.217527	8.02231	18.2404	-0.116818	-7.80478	
0.224397	8.07724	18.2199	-0.131529	-7.85285	
0.210657	8.01545	18.1995	-0.119703	-7.80479	
0.16257	8.05664	18.1995	-0.119991	-7.89407	
0.183179	8.04291	18.1791	-0.11653	-7.85973	
0.176309	8.08411	18.1246	-0.104704	-7.9078	
0.148831	8.09098	18.1382	-0.104992	-7.94215	
0.16944	8.03604	18.145	-0.0954736	-7.8666	
0.141961	8.05664	18.1586	-0.0925891	-7.91468	
0.155701	8.07724	18.1927	-0.0868203	-7.92154	
0.107613	8.07724	18.1314	-0.0824936	-7.96963	
0.114483	8.07724	18.1518	-0.0770132	-7.96276	
0.114483	8.01545	18.1382	-0.0839358	-7.90096	
0.107613	8.06351	18.1314	-0.0804745	-7.9559	
0.0732655	8.02918	18.1042	-0.0793207	-7.95591	
0.0938743	8.04291	18.1042	-0.0726865	-7.94904	
0.0732655	8.02231	18.1518	-0.070379	-7.94905	
0.100744	8.04291	18.1246	-0.0873971	-7.94217	
0.121353	8.04978	18.0633	-0.0925891	-7.92842	
0.190049	8.09784	18.1723	-0.0925891	-7.90779	
0.183179	8.02231	18.1178	-0.098358	-7.83913	
0.210657	8.01545	18.1042	-0.105569	-7.80479	
0.203788	8.02231	18.111	-0.123164	-7.81852	
0.245005	8.04291	18.1246	-0.13499	-7.79791	
0.245005	8.04291	18.1042	-0.142201	-7.79791	
0.251875	8.02918	18.1382	-0.133837	-7.7773	
0.224397	8.02231	18.1382	-0.141913	-7.79791	
0.210657	7.94678	18.0837	-0.143932	-7.73612	
0.224397	7.91931	18.1314	-0.150278	-7.69492	
0.224397	7.87125	18.1382	-0.152874	-7.64685	
0.210657	7.83005	18.1314	-0.150278	-7.61939	
0.293093	7.85752	18.1042	-0.147105	-7.56442	
0.272484	7.81632	18.0701	-0.139029	-7.54383	
0.299962	7.80945	18.1042	-0.132683	-7.50949	
0.313701	7.69272	18.1178	-0.165565	-7.37902	
0.306832	7.68586	18.1518	-0.179987	-7.37902	
0.272484	7.65839	18.1246	-0.195563	-7.38591	
0.279353	7.59659	18.1246	-0.164412	-7.31724	
0.348049	7.56226	18.1314	-0.162681	-7.21421	
0.354919	7.51419	18.0497	-0.213447	-7.15927	
0.34118	7.53479	18.0974	-0.232484	-7.19361	
0.33431	7.4524	18.0701	-0.224119	-7.11809	
0.299962	7.46613	18.0837	-0.208255	-7.16617	
0.354919	7.43866	18.0837	-0.18691	-7.08374	
0.33431	7.40433	18.0633	-0.18691	-7.07002	
0.293093	7.37686	18.0633	-0.209697	-7.08377	
0.368658	7.4524	18.0701	-0.215466	-7.08374	
0.33431	7.36313	18.0701	-0.224696	-7.02882	
0.33431	7.37	18.0633	-0.178834	-7.03569	
0.34118	7.3288	18.0974	-0.170469	-6.98762	
0.320571	7.36313	18.0837	-0.198448	-7.04256	
0.279353	7.30133	18.0701	-0.189795	-7.02198	
0.279353	7.35627	18.0769	-0.171623	-7.07691	
0.34118	7.23267	18.0837	-0.198159	-6.89149	
0.313701	7.23267	18.0769	-0.169027	-6.91897	
0.272484	7.267	18.0497	-0.192967	-6.99452	
0.203788	7.26014	18.0565	-0.179699	-7.05635	
0.293093	7.17087	18.0837	-0.175372	-6.87778	
0.313701	7.25327	18.0837	-0.159508	-6.93957	
0.155701	7.23954	18.0974	-0.150855	-7.08383	
0.190049	7.23267	18.1042	-0.149412	-7.04262	
0.224397	7.17774	18.1178	-0.152008	-6.95334	
0.238136	7.23954	18.0974	-0.14797	-7.0014	
0.176309	7.1846	18.0633	-0.146528	-7.00829	
0.155701	7.23954	18.0701	-0.135856	-7.08383	
0.217527	7.26014	18.111	-0.128645	-7.04261	
0.16257	7.23267	18.0565	-0.13499	-7.0701	
0.190049	7.23954	18.0633	-0.133837	-7.04949	
0.224397	7.267	18.0769	-0.141048	-7.0426	
0.224397	7.26014	18.0701	-0.126625	-7.03574	
0.196918	7.3082	18.1178	-0.116818	-7.11128	
0.265614	7.28073	18.0769	-0.135567	-7.01512	
0.231266	7.3082	18.0974	-0.135567	-7.07693	
0.176309	7.3288	18.111	-0.131241	-7.15249	
0.238136	7.27387	18.0429	-0.113645	-7.03573	
0.16944	7.35627	18.0974	-0.116818	-7.18683	
0.224397	7.36313	18.0701	-0.133548	-7.13874	
0.217527	7.36313	18.111	-0.141336	-7.1456	
0.190049	7.31507	18.1859	-0.139317	-7.12502	
0.203788	7.37	18.1518	-0.130375	-7.16621	
0.148831	7.4318	18.1723	-0.128933	-7.28297	
0.183179	7.45926	18.1791	-0.128356	-7.27608	
0.16944	7.37686	18.1927	-0.137875	-7.20742	
0.224397	7.38373	18.2063	-0.115376	-7.15933	
0.196918	7.40433	18.2404	-0.123164	-7.20741	
0.251875	7.3906	18.254	-0.132971	-7.13872	
0.16944	7.37	18.2812	-0.127491	-7.20056	
0.16944	7.3906	18.254	-0.119703	-7.22116	
0.176309	7.3494	18.288	-0.108742	-7.17309	
0.141961	7.32193	18.288	-0.113645	-7.17997	
0.183179	7.36313	18.3221	-0.121433	-7.17995	
0.16257	7.36313	18.3425	-0.118549	-7.20056	
0.176309	7.37686	18.3357	-0.106146	-7.20056	
0.16257	7.35627	18.363	-0.111915	-7.1937	
0.16944	7.37	18.3834	-0.104704	-7.20056	
0.155701	7.35627	18.3561	-0.110473	-7.20056	
0.203788	7.37686	18.3698	-0.115953	-7.17308	
0.231266	7.40433	18.3902	-0.121433	-7.17306	
0.224397	7.43866	18.4379	-0.122299	-7.21427	
0.190049	7.45926	18.4242	-0.118549	-7.26921	
0.224397	7.46613	18.4583	-0.124318	-7.24173	
0.183179	7.45926	18.4106	-0.126049	-7.27608	
0.265614	7.49359	18.4515	-0.124606	-7.22798	
0.224397	7.50046	18.4651	-0.133548	-7.27606	
0.231266	7.56913	18.4447	-0.136144	-7.33786	
0.16944	7.53479	18.4924	-0.128645	-7.36535	
0.231266	7.61719	18.5128	-0.123741	-7.38592	
0.16257	7.67899	18.5128	-0.12576	-7.51642	
0.210657	7.64466	18.506	-0.128068	-7.434	
0.196918	7.72705	18.5196	-0.112203	-7.53014	
0.217527	7.74079	18.5468	-0.117684	-7.52326	
0.196918	7.80259	18.5673	-0.111915	-7.60567	
0.121353	7.78885	18.6013	-0.111915	-7.6675	
0.121353	7.89185	18.6558	-0.111338	-7.7705	
0.114483	8.00858	18.6013	-0.105858	-7.8941	
0.16944	8.04978	18.6354	-0.102108	-7.88034	
0.0938743	8.09098	18.6217	-0.09057	-7.9971	
0.107613	8.12531	18.6354	-0.0801861	-8.01769	
0.121353	8.18711	18.6694	-0.0807629	-8.06575	
0.0663959	8.17337	18.6762	-0.0747056	-8.10698	
0.100744	8.21457	18.6558	-0.0674945	-8.11383	
0.0595263	8.19397	18.6967	-0.0562453	-8.13445	
0.0320479	8.22831	18.7035	-0.0455728	-8.19626	
0.0389175	8.24204	18.6626	-0.0331698	-8.20312	
0.0663959	8.22144	18.6626	-0.0265356	-8.15504	
0.0183087	8.2695	18.7239	-0.0236511	-8.2512	
0.0114391	8.2695	18.7035	-0.0230743	-8.25806	
0.0389175	8.24204	18.6967	-0.0201898	-8.20312	
0.0114391	8.28324	18.7035	-0.0170169	-8.2718	
-0.0366481	8.29697	18.7307	-0.011825	-8.33362	
-0.0023001	8.32444	18.6967	-0.014421	-8.32674	
0.0183087	8.31757	18.7103	-0.0147094	-8.29926	
-0.0023001	8.44803	18.6967	-0.0126903	-8.45033	
0.0251783	8.44803	18.6694	-0.0121134	-8.42285	
-0.0297785	8.44117	18.7171	-0.00778676	-8.47094	
-0.0503873	8.44117	18.7239	-0.00663298	-8.49155	
-0.0229089	8.46176	18.683	-0.00432543	-8.48467	
-0.0435177	8.4755	18.7443	-0.00259477	-8.51902	
-0.0778657	8.50296	18.7103	-0.000864113	-8.58083	
-0.0778657	8.5373	18.758	0.0103852	-8.61516	
-0.153431	8.55103	18.7103	0.0236536	-8.70446	
-0.139692	8.55103	18.7375	0.039518	-8.69072	
-0.160301	8.54416	18.7375	0.0533633	-8.70446	
-0.228997	8.5373	18.7375	0.064901	-8.76629	
-0.146562	8.54416	18.7443	0.0729774	-8.69072	
-0.16717	8.53043	18.7375	0.0758618	-8.6976	
-0.222127	8.5167	18.758	0.0784578	-8.73882	
-0.194649	8.55103	18.758	0.0778809	-8.74568	
-0.18091	8.53043	18.7171	0.0859574	-8.71134	
-0.201518	8.50296	18.7988	0.0983604	-8.70448	
-0.187779	8.55103	18.7511	0.102976	-8.73881	
-0.215258	8.5167	18.7988	0.113359	-8.73195	
-0.222127	8.48236	18.7988	0.10961	-8.70449	
-0.228997	8.50983	18.758	0.0957644	-8.73883	
-0.235866	8.54416	18.7852	0.10211	-8.78003	
-0.146562	8.4961	18.792	0.10211	-8.64266	
-0.263345	8.44803	18.7648	0.108744	-8.71138	
-0.235866	8.4755	18.7988	0.122301	-8.71136	
-0.222127	8.42057	18.8261	0.126339	-8.64269	
-0.194649	8.3931	18.8533	0.0974951	-8.58775	
-0.16717	8.38623	18.8601	0.0977835	-8.5534	
-0.201518	8.39997	18.8533	0.0925916	-8.60149	
-0.208388	8.38623	18.8737	0.0957644	-8.59462	
-0.194649	8.35877	18.8737	0.0888418	-8.55342	
-0.146562	8.35877	18.8669	0.0856689	-8.50533	
-0.125953	8.34503	18.9282	0.0718236	-8.47099	
-0.146562	8.33817	18.8805	0.0646125	-8.48473	
-0.125953	8.31757	18.8942	0.059709	-8.44352	
-0.139692	8.30384	18.9146	0.0501904	-8.44353	
-0.153431	8.22144	18.9078	0.0522095	-8.37487	
-0.112214	8.15964	18.9418	0.0599975	-8.27185	
-0.132822	8.18711	18.9486	0.0660548	-8.31993	
-0.119083	8.10471	18.9759	0.0499019	-8.22379	
-0.0984745	8.02918	18.9486	0.049325	-8.12765	
-0.112214	8.01545	19.0236	0.0481713	-8.12766	
-0.0847353	7.91931	18.9691	0.0441331	-8.00405	
-0.0847353	7.91245	19.0099	0.0331722	-7.99718	
-0.0641265	7.88498	19.0712	0.0274033	-7.94911	
-0.0503873	7.82318	19.0304	0.0299993	-7.87357	
-0.0091697	7.74765	19.0849	0.0227882	-7.75682	
-0.0297785	7.62406	19.0372	0.0138465	-7.65384	
0.0183087	7.63092	19.0508	0.00202032	-7.61261	
0.0045695	7.59659	19.0508	-0.00634454	-7.59202	
-0.0229089	7.52106	19.0508	-0.011825	-7.54397	
0.0183087	7.49359	19.0576	-0.00778676	-7.47529	
0.0320479	7.44553	19.0917	-0.0138441	-7.41348	
0.0526567	7.37686	19.0576	-0.0132672	-7.32421	
0.0457871	7.37	19.0712	-0.0132672	-7.32421	
-0.0023001	7.27387	19.1121	-0.0173054	-7.27617	
0.0114391	7.2258	19.1257	-0.0149978	-7.21436	
0.0595263	7.2464	19.1257	-0.0167285	-7.18688	
0.0045695	7.19147	19.1325	-0.0184592	-7.1869	
-0.0297785	7.12967	19.1802	-0.0147094	-7.15945	
-0.0366481	7.10221	19.153	-0.0115365	-7.13885	
