C:\DOCUMENTS AND SETTINGS\ADMINISTRATOR\DESKTOP\EFFORT\PATIENT 27\TRACINGS\ACQ 3\EFFORT27-SBT_POSTEEXT_OLD.ACQ
5.000000 msec/sample
5 channels
Paw
cmH2O
Peso
cmH2O
Pgas
cmH2O
Flow
L/s
PL
cmH2O
CH1	CH2	CH3	CH4	CH40	
62072	62072	62072	62072	62072	
0.192786	17.1162	23.2784	-0.001441	-16.9234	
0.199754	17.1093	23.2647	-0.00259477	-16.9095	
0.199754	17.0746	23.3057	-0.00172944	-16.8749	
0.185817	16.9914	23.292	-0.00172944	-16.8056	
0.248534	17.0607	23.333	-0.00288322	-16.8122	
0.276408	16.9914	23.3125	-0.00317166	-16.715	
0.318219	17.0053	23.3261	-0.00692143	-16.6871	
0.318219	17.0122	23.3057	-0.00403699	-16.694	
0.346093	16.9706	23.333	-0.00749831	-16.6245	
0.436684	16.9914	23.333	-0.0080752	-16.5547	
0.471527	16.9637	23.3193	-0.0080752	-16.4922	
0.520307	16.9498	23.3808	-0.00894053	-16.4295	
0.603929	16.9291	23.292	-0.011825	-16.3251	
0.708457	16.936	23.3671	-0.0121134	-16.2275	
0.757237	16.9152	23.3057	-0.0147094	-16.158	
0.826922	16.936	23.3125	-0.014421	-16.1091	
0.910545	16.9013	23.3057	-0.0147094	-15.9908	
1.05688	16.9083	23.3193	-0.0149978	-15.8514	
1.08476	16.9498	23.3125	-0.0121134	-15.8651	
1.19625	16.9568	23.3125	-0.0126903	-15.7605	
1.21716	16.9291	23.3125	-0.0103827	-15.7119	
1.27988	16.9083	23.3193	-0.0080752	-15.6284	
1.31472	16.9706	23.3261	-0.00692143	-15.6559	
1.33563	16.936	23.292	-0.00403699	-15.6004	
1.35653	17.033	23.3603	-0.00432543	-15.6765	
1.35653	16.9914	23.3398	-0.00403699	-15.6349	
1.31472	17.0192	23.3466	-0.001441	-15.7044	
1.27988	17.0607	23.3808	-0.00230633	-15.7809	
1.22413	17.1231	23.3671	1.21691E-006	-15.899	
1.19625	17.1717	23.3535	0.00144343	-15.9754	
1.12657	17.2063	23.3398	0.00202032	-16.0797	
1.07082	17.234	23.4012	1.21691E-006	-16.1632	
0.994167	17.2618	23.3739	-0.00115256	-16.2676	
0.93145	17.3172	23.3808	-0.00317166	-16.3858	
0.924482	17.3796	23.3603	-0.00403699	-16.4551	
0.868733	17.4212	23.3671	-0.00317166	-16.5525	
0.840859	17.4143	23.3739	-0.00692143	-16.5734	
0.840859	17.4974	23.3808	-0.00461388	-16.6566	
0.778143	17.539	23.4285	-0.00432543	-16.7609	
0.833891	17.5252	23.3466	-0.00461388	-16.6913	
0.79208	17.5737	23.3671	-0.00576765	-16.7816	
0.750268	17.6153	23.3944	-0.00432543	-16.865	
0.729363	17.6569	23.4149	-0.00317166	-16.9275	
0.750268	17.6707	23.3944	-0.0034601	-16.9205	
0.736331	17.6984	23.3944	-0.00172944	-16.9621	
0.64574	17.8094	23.3876	-0.00057567	-17.1636	
0.687552	17.8024	23.3671	0.00115499	-17.1149	
0.617866	17.844	23.3739	0.00202032	-17.2261	
0.576055	17.8925	23.3671	0.00202032	-17.3165	
0.541212	18.0173	23.3808	0.00577009	-17.4761	
0.485464	18.0104	23.3808	0.00807763	-17.5249	
0.464559	18.0866	23.4081	0.00980829	-17.6221	
0.401842	18.1005	23.4217	0.0100967	-17.6986	
0.332156	18.1837	23.3671	0.0158656	-17.8515	
0.283377	18.2252	23.4217	0.0193269	-17.9419	
0.199754	18.253	23.3466	0.0204807	-18.0532	
0.137037	18.3292	23.4149	0.0230767	-18.1922	
0.00463531	18.3639	23.3808	0.0276918	-18.3592	
-0.0441444	18.4263	23.3808	0.0308647	-18.4704	
-0.127767	18.4263	23.3876	0.0340375	-18.554	
-0.2532	18.4956	23.3808	0.0349029	-18.7488	
-0.274106	18.5164	23.4217	0.0354798	-18.7905	
-0.448319	18.5164	23.4012	0.0377873	-18.9647	
-0.504068	18.5926	23.3808	0.0374989	-19.0967	
-0.601627	18.5718	23.4285	0.034326	-19.1734	
-0.692218	18.6342	23.4149	0.0311531	-19.3264	
-0.713124	18.5926	23.3671	0.0320184	-19.3057	
-0.831589	18.6342	23.3808	0.0299993	-19.4658	
-0.8734	18.6273	23.4149	0.0294224	-19.5007	
-0.929148	18.6411	23.4422	0.0282687	-19.5703	
-1.03368	18.6619	23.4149	0.0233651	-19.6956	
-1.08942	18.6827	23.3739	0.0222114	-19.7721	
-1.11033	18.6758	23.3808	0.0178847	-19.7861	
-1.20092	18.6897	23.4012	0.01875	-19.8906	
-1.20092	18.7243	23.4149	0.0175963	-19.9252	
-1.26364	18.7382	23.4081	0.016154	-20.0018	
-1.32635	18.7243	23.4285	0.0155772	-20.0507	
-1.36817	18.6897	23.4217	0.0167309	-20.0578	
-1.42391	18.6897	23.4422	0.0141349	-20.1136	
-1.45179	18.7104	23.4012	0.0144234	-20.1622	
-1.46573	18.6966	23.4558	0.0138465	-20.1623	
-1.47966	18.655	23.4285	0.0121158	-20.1347	
-1.52147	18.7243	23.4149	0.0100967	-20.2458	
-1.55632	18.7174	23.4081	0.00951985	-20.2737	
-1.59813	18.6966	23.449	0.0103852	-20.2947	
-1.626	18.6619	23.4558	0.00894296	-20.2879	
-1.626	18.6689	23.4012	0.00605853	-20.2949	
-1.58419	18.6689	23.4217	0.00375098	-20.253	
-1.65388	18.6411	23.4081	-0.00057567	-20.295	
-1.58419	18.6342	23.4558	0.000866547	-20.2184	
-1.59813	18.5926	23.4627	-0.00230633	-20.1907	
-1.55632	18.5926	23.4558	-0.0034601	-20.1489	
-1.55632	18.5441	23.4831	-0.0060561	-20.1004	
-1.53541	18.4956	23.3876	-0.00547921	-20.031	
-1.48663	18.5094	23.3944	-0.00778676	-19.9961	
-1.40301	18.4886	23.4422	-0.0100943	-19.8916	
-1.34726	18.4678	23.4081	-0.0080752	-19.8151	
-1.29848	18.4886	23.4012	-0.0124019	-19.7871	
-1.20789	18.4956	23.4217	-0.0109596	-19.7035	
-1.11033	18.35	23.4354	-0.0138441	-19.4603	
-1.04761	18.3708	23.3944	-0.0112481	-19.4184	
-1.01974	18.2668	23.4285	-0.0115365	-19.2866	
-0.915211	18.246	23.4558	-0.00922897	-19.1612	
-0.880368	18.2599	23.4285	-0.00749831	-19.1403	
-0.810683	18.1975	23.4149	-0.00720987	-19.0082	
-0.740998	18.1074	23.3808	-0.00836364	-18.8484	
-0.706155	18.1143	23.3603	-0.00894053	-18.8205	
-0.594659	17.9618	23.3739	-0.00720987	-18.5565	
-0.552847	17.9965	23.3535	-0.0126903	-18.5494	
-0.448319	17.9411	23.3603	-0.0124019	-18.3894	
-0.357728	17.8717	23.3739	-0.0178823	-18.2295	
-0.260169	17.8371	23.3261	-0.0222089	-18.0972	
-0.120798	17.7123	23.3125	-0.02942	-17.8331	
0.0185724	17.6846	23.3603	-0.0380733	-17.666	
0.192786	17.6222	23.3466	-0.0458613	-17.4294	
0.311251	17.5529	23.2852	-0.0536493	-17.2416	
0.50637	17.5252	23.2579	-0.0576875	-17.0188	
0.687552	17.4212	23.2784	-0.0585528	-16.7336	
0.875702	17.3796	23.292	-0.0545146	-16.5039	
0.903576	17.3103	23.2852	-0.0481688	-16.4067	
1.08476	17.234	23.2852	-0.0426884	-16.1493	
1.18232	17.1439	23.2784	-0.0328813	-15.9616	
1.27291	17.1093	23.2306	-0.0219205	-15.8364	
1.30078	17.04	23.2715	-0.0167285	-15.7392	
1.37047	17.0192	23.2579	-0.0112481	-15.6487	
1.41925	16.9498	23.2784	-0.00547921	-15.5306	
1.48893	16.8667	23.2579	-0.00374855	-15.3777	
1.43318	16.9083	23.2442	-0.00259477	-15.4751	
1.48893	16.8528	23.2647	-0.00432543	-15.3639	
1.43318	16.7974	23.2511	-0.00490232	-15.3642	
1.37047	16.7835	23.2374	-0.00432543	-15.413	
1.30775	16.7211	23.2852	-0.00663298	-15.4134	
1.32169	16.7419	23.2784	-0.00692143	-15.4202	
1.22413	16.728	23.2784	-0.00922897	-15.5039	
1.18929	16.6379	23.2647	-0.00980586	-15.4486	
1.18232	16.6657	23.2784	-0.00749831	-15.4833	
1.16838	16.5963	23.2784	-0.0103827	-15.428	
1.21019	16.5894	23.2442	-0.0126903	-15.3792	
1.21716	16.5478	23.2511	-0.0173054	-15.3307	
1.19625	16.6102	23.2306	-0.0181707	-15.4139	
1.18929	16.5409	23.2169	-0.0230743	-15.3516	
1.21716	16.5478	23.1965	-0.0250934	-15.3307	
1.22413	16.5963	23.2169	-0.026824	-15.3722	
1.2311	16.5686	23.1965	-0.0291316	-15.3375	
1.22413	16.534	23.1896	-0.0297085	-15.3098	
1.21716	16.5825	23.2374	-0.0274009	-15.3653	
1.27291	16.5617	23.2101	-0.0299969	-15.2888	
1.16838	16.5617	23.1282	-0.0256702	-15.3933	
1.20322	16.6241	23.1965	-0.0224974	-15.4208	
1.13354	16.6726	23.176	-0.0213436	-15.539	
1.13354	16.6726	23.2306	-0.0175938	-15.539	
1.05688	16.735	23.2101	-0.0149978	-15.6781	
0.994167	16.7072	23.2374	-0.0126903	-15.7131	
1.00114	16.7696	23.2442	-0.0109596	-15.7685	
0.896608	16.7766	23.2238	-0.00922897	-15.88	
0.861765	16.8389	23.2306	-0.00922897	-15.9772	
0.854796	16.9291	23.2306	-0.00634454	-16.0743	
0.7433	16.9013	23.2306	-0.00461388	-16.158	
0.673615	16.9568	23.2442	-0.0060561	-16.2832	
0.680583	16.9706	23.2784	-0.00519076	-16.2901	
0.617866	16.9984	23.3125	-0.00461388	-16.3805	
0.576055	17.0815	23.3193	-0.00288322	-16.5055	
0.562118	17.0677	23.2852	-0.00374855	-16.5056	
0.471527	17.0885	23.3466	-0.00576765	-16.6169	
0.478496	17.0677	23.3398	-0.00259477	-16.5892	
0.380936	17.1093	23.3466	-0.00259477	-16.7283	
0.394873	17.1023	23.3808	-0.001441	-16.7075	
0.40881	17.1301	23.3603	0.000578104	-16.7213	
0.346093	17.1023	23.3876	-0.000287227	-16.7562	
0.360031	17.1578	23.4081	0.00028966	-16.7978	
0.366999	17.0885	23.3944	-0.00230633	-16.7215	
0.40881	17.0885	23.4149	-0.00374855	-16.6797	
0.436684	17.0677	23.3739	-0.00403699	-16.631	
0.450621	17.0885	23.449	-0.00692143	-16.6379	
0.464559	17.0677	23.4217	-0.00576765	-16.6031	
0.527275	17.033	23.4285	-0.00663298	-16.5057	
0.624835	17.04	23.449	-0.0080752	-16.4151	
0.638772	16.9984	23.4422	-0.0080752	-16.3596	
0.708457	16.9984	23.4217	-0.0100943	-16.2899	
0.7433	17.033	23.3808	-0.0121134	-16.2897	
0.833891	17.0122	23.449	-0.014421	-16.1783	
0.966293	17.0122	23.4285	-0.0164401	-16.0459	
1.07082	16.9706	23.4285	-0.0175938	-15.8998	
1.12657	16.9914	23.4422	-0.0167285	-15.8649	
1.22413	17.0192	23.4695	-0.0170169	-15.795	
1.29381	17.0538	23.4012	-0.0178823	-15.76	
1.34956	16.9914	23.4422	-0.0170169	-15.6419	
1.48196	17.0192	23.4354	-0.0164401	-15.5372	
1.51681	17.0954	23.4285	-0.0126903	-15.5786	
1.61437	17.0607	23.4695	-0.0132672	-15.4464	
1.57256	17.1093	23.4354	-0.00894053	-15.5367	
1.6074	17.1162	23.4558	-0.00865209	-15.5088	
1.52378	17.1301	23.449	-0.00547921	-15.6063	
1.54468	17.1924	23.4831	-0.00980586	-15.6478	
1.50984	17.1994	23.49	-0.00836364	-15.6895	
1.40531	17.2618	23.5104	-0.00865209	-15.8565	
1.35653	17.3034	23.5241	-0.00865209	-15.9468	
1.29381	17.3241	23.4968	-0.0109596	-16.0303	
1.252	17.4212	23.4695	-0.0106712	-16.1692	
1.20322	17.4281	23.5173	-0.0109596	-16.2249	
1.18929	17.4974	23.5651	-0.0112481	-16.3081	
1.18929	17.5529	23.5309	-0.0158632	-16.3636	
1.08476	17.5945	23.5173	-0.0152863	-16.5097	
1.11263	17.6222	23.5378	-0.0178823	-16.5096	
1.0081	17.7054	23.5651	-0.0193245	-16.6973	
1.07082	17.6846	23.5378	-0.0196129	-16.6138	
1.05688	17.7123	23.5651	-0.0196129	-16.6554	
1.03598	17.7886	23.5582	-0.0213436	-16.7526	
1.04295	17.8371	23.5104	-0.0213436	-16.7941	
0.973261	17.844	23.5104	-0.0187476	-16.8707	
0.959324	17.9757	23.5378	-0.0175938	-17.0164	
0.945387	18.0173	23.5855	-0.0147094	-17.0719	
0.945387	18.0242	23.5378	-0.014421	-17.0788	
0.910545	18.0797	23.5514	-0.0112481	-17.1691	
0.840859	18.0797	23.5651	-0.00922897	-17.2388	
0.826922	18.149	23.5582	-0.00720987	-17.3221	
0.771174	18.1837	23.5173	-0.0080752	-17.4125	
0.778143	18.253	23.5378	-0.00749831	-17.4748	
0.715426	18.3431	23.5582	-0.00634454	-17.6277	
0.715426	18.4193	23.5582	-0.00547921	-17.7039	
0.673615	18.4609	23.5582	-0.00432543	-17.7873	
0.673615	18.5441	23.5309	-0.00317166	-17.8705	
0.576055	18.6273	23.5378	-0.00288322	-18.0512	
0.548181	18.6273	23.5446	-0.00317166	-18.0791	
0.499401	18.7312	23.5719	-0.00288322	-18.2318	
0.443653	18.7728	23.5651	0.00230876	-18.3292	
0.366999	18.8075	23.5582	0.0051932	-18.4405	
0.304282	18.8144	23.5651	0.00865452	-18.5101	
0.255503	18.9184	23.5446	0.0144234	-18.6629	
0.213691	18.9253	23.5924	0.0204807	-18.7116	
0.178849	18.9461	23.5787	0.0227882	-18.7673	
0.0603836	19.0224	23.5719	0.023942	-18.962	
0.0255409	18.9946	23.5924	0.029134	-18.9691	
-0.0859556	19.0709	23.5582	0.0308647	-19.1568	
-0.148672	19.0709	23.6197	0.0299993	-19.2196	
-0.232295	19.064	23.6128	0.029134	-19.2962	
-0.260169	19.1055	23.6128	0.0259611	-19.3657	
-0.329854	19.1333	23.5992	0.0207691	-19.4631	
-0.441351	19.1541	23.6333	0.0196154	-19.5954	
-0.448319	19.1887	23.6128	0.0190385	-19.637	
-0.469225	19.2372	23.6265	0.0132696	-19.7065	
-0.518005	19.2303	23.5992	0.00980829	-19.7483	
-0.545879	19.2719	23.5787	0.00923141	-19.8178	
-0.566784	19.2303	23.6128	0.00980829	-19.7971	
-0.552847	19.2858	23.5992	0.0100967	-19.8386	
-0.601627	19.265	23.5719	0.00865452	-19.8666	
-0.678281	19.2719	23.6265	0.0100967	-19.9502	
-0.678281	19.2996	23.5582	0.00692386	-19.9779	
-0.720092	19.258	23.5787	0.0072123	-19.9781	
-0.789778	19.3135	23.606	0.00634697	-20.1033	
-0.740998	19.3135	23.6128	0.0051932	-20.0545	
-0.77584	19.2927	23.5582	0.00317409	-20.0685	
-0.789778	19.2719	23.5514	0.00259721	-20.0617	
-0.77584	19.265	23.6197	0.00144343	-20.0408	
-0.810683	19.2788	23.5651	0.000578104	-20.0895	
-0.810683	19.2719	23.5582	0.00028966	-20.0826	
-0.782809	19.2164	23.5855	0.00028966	-19.9993	
-0.768872	19.2719	23.5378	-0.00403699	-20.0408	
-0.740998	19.2511	23.5855	-0.00374855	-19.9921	
-0.761903	19.2372	23.5992	-0.00692143	-19.9991	
-0.664344	19.2026	23.5855	-0.00490232	-19.8669	
-0.63647	19.2026	23.5924	-0.0060561	-19.8391	
-0.601627	19.1957	23.5651	-0.00663298	-19.7973	
-0.518005	19.1471	23.5446	-0.00865209	-19.6651	
-0.497099	19.1333	23.606	-0.0112481	-19.6304	
-0.413477	19.1194	23.5651	-0.0121134	-19.5329	
-0.329854	19.1055	23.6128	-0.0147094	-19.4354	
-0.239263	19.064	23.5309	-0.014421	-19.3032	
-0.176547	19.0501	23.5719	-0.0132672	-19.2266	
-0.11383	19.0154	23.5378	-0.0112481	-19.1293	
-0.051113	18.96	23.5582	-0.0112481	-19.0111	
0.039478	18.8976	23.5514	-0.00634454	-18.8581	
0.102195	18.9184	23.5309	-0.00836364	-18.8162	
0.157943	18.8352	23.5378	-0.00778676	-18.6773	
0.276408	18.8006	23.5309	-0.00922897	-18.5241	
0.283377	18.752	23.49	-0.0100943	-18.4687	
0.360031	18.6827	23.4831	-0.0138441	-18.3227	
0.471527	18.6273	23.5104	-0.0147094	-18.1557	
0.534244	18.5718	23.49	-0.0184592	-18.0376	
0.701489	18.5372	23.4831	-0.0236511	-17.8357	
0.799048	18.4678	23.4695	-0.0282662	-17.6688	
0.98023	18.3985	23.449	-0.0357658	-17.4183	
1.1196	18.35	23.4422	-0.0415346	-17.2304	
1.28685	18.246	23.4354	-0.0493226	-16.9592	
1.45409	18.1975	23.3876	-0.0504764	-16.7434	
1.55862	18.1143	23.449	-0.0530724	-16.5557	
1.7398	18.0866	23.4012	-0.0507648	-16.3468	
1.83039	18.0312	23.3193	-0.0461497	-16.2008	
1.96976	17.9549	23.333	-0.0415346	-15.9852	
2.01157	17.844	23.3398	-0.0366311	-15.8324	
2.03945	17.8371	23.3603	-0.0288431	-15.7976	
2.07429	17.7955	23.3466	-0.0250934	-15.7212	
1.96976	17.7054	23.3808	-0.0227858	-15.7356	
1.90008	17.6915	23.2988	-0.0219205	-15.7914	
1.81645	17.6499	23.3261	-0.0274009	-15.8335	
1.75374	17.5598	23.333	-0.0279778	-15.8061	
1.71193	17.5321	23.3466	-0.0288431	-15.8202	
1.6074	17.5252	23.3466	-0.0349004	-15.9178	
1.60043	17.4489	23.3057	-0.0415346	-15.8485	
1.55165	17.4836	23.3398	-0.0484573	-15.9319	
1.46803	17.4143	23.3398	-0.0519186	-15.9462	
1.42622	17.3657	23.3466	-0.0542261	-15.9395	
1.35653	17.2687	23.3193	-0.0579759	-15.9122	
1.34259	17.2964	23.333	-0.0611488	-15.9538	
1.34259	17.2826	23.2784	-0.0637448	-15.94	
1.31472	17.2756	23.2442	-0.0654754	-15.9609	
1.31472	17.2132	23.2715	-0.0666292	-15.8985	
1.30078	17.2271	23.2579	-0.0663408	-15.9263	
1.30775	17.1994	23.2169	-0.065187	-15.8916	
1.21716	17.1855	23.2238	-0.0683599	-15.9684	
1.24503	17.137	23.2374	-0.0672061	-15.892	
1.28685	17.1509	23.2579	-0.0686483	-15.864	
1.2311	17.1647	23.2374	-0.0646101	-15.9336	
1.18929	17.1786	23.1828	-0.0591297	-15.9893	
1.18929	17.1717	23.1692	-0.0562453	-15.9824	
1.14051	17.1717	23.2033	-0.0524955	-16.0311	
1.06385	17.1439	23.2442	-0.044996	-16.0801	
1.02901	17.1855	23.1555	-0.0412462	-16.1565	
0.987199	17.1924	23.1896	-0.0349004	-16.2052	
0.938419	17.2479	23.1896	-0.0282662	-16.3095	
0.861765	17.241	23.2101	-0.0213436	-16.3792	
0.764205	17.2826	23.176	-0.0170169	-16.5184	
0.687552	17.3519	23.1828	-0.0126903	-16.6643	
0.624835	17.3519	23.1965	-0.00894053	-16.727	
0.569087	17.3103	23.2033	-0.00720987	-16.7412	
0.534244	17.4212	23.1965	-0.00576765	-16.8869	
0.485464	17.3935	23.1828	-0.00288322	-16.908	
0.40881	17.4697	23.176	-0.00403699	-17.0609	
0.332156	17.4766	23.2033	-0.00201789	-17.1445	
0.255503	17.4697	23.2511	-0.00230633	-17.2142	
0.206723	17.539	23.2579	0.00028966	-17.3323	
0.164912	17.4905	23.2442	0.00375098	-17.3256	
0.1231	17.5529	23.2715	0.00663542	-17.4298	
0.0743206	17.5044	23.2442	0.00807763	-17.43	
0.039478	17.5321	23.2511	0.0124043	-17.4926	
0.0116038	17.5044	23.2784	0.0135581	-17.4928	
-0.051113	17.4905	23.2579	0.0150003	-17.5416	
-0.0580815	17.4628	23.2579	0.0152887	-17.5209	
-0.0998927	17.4558	23.292	0.011539	-17.5557	
-0.0998927	17.4281	23.333	0.0100967	-17.528	
-0.120798	17.3865	23.292	0.00692386	-17.5073	
-0.148672	17.4143	23.2852	0.00317409	-17.5629	
-0.127767	17.338	23.333	1.21691E-006	-17.4658	
-0.11383	17.2964	23.3535	-0.00461388	-17.4103	
-0.0929242	17.2964	23.3603	-0.00663298	-17.3893	
-0.0789871	17.3449	23.3193	-0.0080752	-17.4239	
-0.051113	17.2756	23.3057	-0.00720987	-17.3267	
-0.00233322	17.2202	23.3193	-0.00720987	-17.2225	
0.053415	17.234	23.2647	-0.00749831	-17.1806	
0.102195	17.2271	23.2374	-0.00894053	-17.1249	
0.192786	17.1994	23.2852	-0.0100943	-17.0066	
0.262471	17.1647	23.2374	-0.00836364	-16.9023	
0.297314	17.1994	23.2374	-0.0080752	-16.9021	
0.332156	17.1717	23.2238	-0.0080752	-16.8395	
0.353062	17.1994	23.2442	-0.00865209	-16.8463	
0.436684	17.1509	23.2442	-0.0060561	-16.7142	
0.45759	17.0954	23.1965	-0.00461388	-16.6378	
0.527275	17.1717	23.1692	-0.0034601	-16.6444	
0.569087	17.1647	23.1965	-0.0060561	-16.5956	
0.541212	17.1162	23.2306	-0.001441	-16.575	
0.527275	17.1855	23.2442	-0.001441	-16.6582	
0.45759	17.1578	23.2306	0.00346254	-16.7002	
0.40881	17.1509	23.2033	0.00663542	-16.742	
0.332156	17.2548	23.1896	0.0135581	-16.9227	
0.304282	17.2132	23.2033	0.016154	-16.909	
0.22066	17.241	23.2374	0.0207691	-17.0203	
0.157943	17.2756	23.2238	0.0253842	-17.1177	
0.0603836	17.2895	23.1965	0.0274033	-17.2291	
0.00463531	17.3588	23.2306	0.0299993	-17.3542	
-0.0720186	17.3657	23.2033	0.0328838	-17.4378	
-0.204421	17.3935	23.2511	0.0340375	-17.5979	
-0.267137	17.4143	23.2101	0.0314416	-17.6814	
-0.385603	17.4697	23.176	0.0311531	-17.8553	
-0.441351	17.4558	23.1896	0.0279802	-17.8972	
-0.53891	17.4766	23.2442	0.0271149	-18.0156	
-0.552847	17.4836	23.1282	0.0271149	-18.0364	
-0.629501	17.5252	23.1965	0.026538	-18.1547	
-0.699187	17.4766	23.135	0.0294224	-18.1758	
-0.810683	17.5529	23.176	0.0302878	-18.3636	
-0.929148	17.5182	23.1896	0.0299993	-18.4474	
-1.0058	17.5945	23.1419	0.0334607	-18.6003	
-1.08942	17.6083	23.1145	0.0374989	-18.6978	
-1.20789	17.6014	23.0668	0.0383642	-18.8093	
-1.31939	17.643	23.1009	0.0429793	-18.9624	
-1.43088	17.643	23.0941	0.0432677	-19.0739	
-1.54238	17.7192	23.0941	0.0447099	-19.2616	
-1.61206	17.6707	23.1009	0.0484597	-19.2828	
-1.73053	17.7123	23.0053	0.0530748	-19.4428	
-1.89081	17.6846	23.0326	0.0536517	-19.5754	
-2.0023	17.7747	23.0395	0.0556708	-19.777	
-2.20439	17.7886	23.0258	0.0585552	-19.9929	
-2.31589	17.8163	22.9371	0.0628819	-20.1322	
-2.49707	17.8856	22.9712	0.0672085	-20.3827	
-2.6225	17.8579	22.9712	0.0663432	-20.4804	
-2.72703	17.8579	22.9166	0.0672085	-20.5849	
-2.95002	17.8717	22.9303	0.0698045	-20.8218	
-3.00577	17.8787	22.9029	0.072689	-20.8844	
-3.2427	17.8856	22.9303	0.0729774	-21.1283	
-3.38207	17.8856	22.978	0.0689392	-21.2677	
-3.54932	17.8717	22.8483	0.0706699	-21.4211	
-3.68172	17.8579	22.8347	0.0712467	-21.5396	
-3.86987	17.8579	22.8552	0.0721121	-21.7277	
-3.98137	17.844	22.8415	0.0715352	-21.8254	
-4.12771	17.8301	22.8483	0.0703814	-21.9579	
-4.12771	17.7886	22.8006	0.070093	-21.9163	
-4.2392	17.7747	22.7801	0.0773041	-22.0139	
-4.30192	17.7886	22.7323	0.0822076	-22.0905	
-4.36464	17.7331	22.746	0.0894187	-22.0977	
-4.36464	17.6499	22.7255	0.107302	-22.0146	
-4.21133	17.6014	22.705	0.125763	-21.8127	
-4.11377	17.6291	22.6913	0.145954	-21.7429	
-4.05105	17.6014	22.6504	0.182009	-21.6525	
-3.8629	17.5737	22.6231	0.203642	-21.4366	
-3.63294	17.5044	22.5958	0.236525	-21.1373	
-3.43782	17.4628	22.589	0.268254	-20.9006	
-3.20786	17.3865	22.5958	0.298252	-20.5944	
-2.96396	17.3519	22.5958	0.336903	-20.3158	
-2.7549	17.3657	22.589	0.356517	-20.1206	
-2.41345	17.3103	22.5685	0.370651	-19.7237	
-2.18348	17.2271	22.5207	0.398918	-19.4106	
-1.83506	17.2479	22.4661	0.40238	-19.083	
-1.626	17.1301	22.5275	0.419975	-18.7561	
-1.39604	17.1231	22.4661	0.441608	-18.5192	
-1.11033	17.04	22.4729	0.464684	-18.1503	
-0.866431	16.9498	22.4866	0.48199	-17.8163	
-0.63647	16.9152	22.4797	0.475356	-17.5517	
-0.434382	16.8389	22.4524	0.468145	-17.2733	
-0.204421	16.7696	22.5275	0.480836	-16.974	
0.039478	16.7142	22.4661	0.46901	-16.6747	
0.339125	16.6379	22.3637	0.477952	-16.2988	
0.485464	16.5547	22.432	0.475933	-16.0693	
0.652709	16.5478	22.391	0.454011	-15.8951	
0.861765	16.4785	22.391	0.46353	-15.6167	
0.806017	16.3191	22.3159	0.503912	-15.5131	
0.69452	16.2914	22.3637	0.454877	-15.5968	
0.520307	16.1874	22.3159	0.466703	-15.6671	
0.450621	16.1458	22.3432	0.42459	-15.6952	
0.394873	16.0141	22.3091	0.413629	-15.6192	
0.394873	15.8963	22.3501	0.40613	-15.5014	
0.339125	15.8477	22.2681	0.38017	-15.5086	
0.40881	15.7368	22.2613	0.409302	-15.328	
0.360031	15.6606	22.2272	0.384496	-15.3006	
0.429716	15.515	22.2272	0.325654	-15.0853	
0.40881	15.3833	22.2272	0.328827	-14.9745	
0.478496	15.3071	22.2477	0.338345	-14.8286	
0.492433	15.217	22.1589	0.336903	-14.7245	
0.534244	15.0853	22.1248	0.289887	-14.551	
0.520307	15.0021	22.1658	0.259312	-14.4818	
0.499401	14.8843	22.1589	0.258447	-14.3849	
0.534244	14.7526	22.0907	0.27258	-14.2183	
0.569087	14.6555	22.0702	0.282099	-14.0864	
0.583024	14.5307	22.0429	0.243159	-13.9477	
0.638772	14.3921	22.0565	0.195566	-13.7533	
0.680583	14.3228	22.0019	0.202777	-13.6422	
0.687552	14.2327	22.0019	0.205085	-13.5451	
0.722394	14.0871	21.9337	0.207969	-13.3647	
0.729363	13.9762	21.961	0.202777	-13.2469	
0.722394	13.8653	21.9473	0.193835	-13.1429	
0.764205	13.7683	21.9405	0.199027	-13.0041	
0.659677	13.6158	21.9064	0.207392	-12.9561	
0.610898	13.491	21.961	0.223545	-12.8801	
0.50637	13.4148	21.9269	0.221814	-12.9084	
0.380936	13.3039	21.8996	0.214026	-12.9229	
0.325188	13.186	21.92	0.216045	-12.8608	
0.262471	13.089	21.9405	0.218641	-12.8265	
0.227628	13.0613	21.9269	0.220372	-12.8336	
0.150975	12.9434	21.9337	0.216911	-12.7925	
0.109163	12.9018	21.8996	0.220372	-12.7927	
0.109163	12.8256	21.9337	0.219795	-12.7164	
0.150975	12.7008	21.9064	0.238255	-12.5499	
0.102195	12.6177	21.8313	0.239409	-12.5155	
0.053415	12.5483	21.8654	0.246332	-12.4949	
0.053415	12.479	21.8654	0.234217	-12.4256	
0.130069	12.4444	21.8381	0.24662	-12.3143	
0.157943	12.3543	21.8381	0.27258	-12.1963	
0.192786	12.3057	21.8381	0.278926	-12.113	
0.26944	12.181	21.8586	0.28383	-11.9115	
0.353062	12.0978	21.8722	0.284983	-11.7447	
0.471527	12.0909	21.8245	0.284406	-11.6193	
0.513338	12.0493	21.8381	0.292771	-11.5359	
0.715426	11.98	21.8449	0.326519	-11.2645	
0.708457	11.9384	21.8449	0.337192	-11.2299	
0.79208	11.9037	21.8108	0.324789	-11.1116	
0.882671	11.8829	21.7972	0.328827	-11.0002	
0.806017	11.8621	21.7903	0.327673	-11.0561	
0.708457	11.772	21.8245	0.333153	-11.0636	
0.638772	11.7651	21.804	0.341807	-11.1263	
0.541212	11.8067	21.7699	0.321327	-11.2655	
0.534244	11.7443	21.804	0.312097	-11.21	
0.548181	11.675	21.8245	0.315847	-11.1268	
0.562118	11.7235	21.8313	0.325077	-11.1614	
0.596961	11.7235	21.8176	0.313251	-11.1265	
0.687552	11.6819	21.8245	0.317866	-10.9943	
0.64574	11.668	21.8108	0.325654	-11.0223	
0.659677	11.6611	21.8313	0.345845	-11.0014	
0.583024	11.7166	21.8518	0.346999	-11.1335	
0.603929	11.668	21.8108	0.343249	-11.0641	
0.527275	11.6264	21.8586	0.328538	-11.0992	
0.541212	11.7096	21.8586	0.332865	-11.1684	
0.499401	11.6195	21.8722	0.336615	-11.1201	
0.50637	11.6195	21.8927	0.352768	-11.1131	
0.562118	11.5571	21.8996	0.332288	-10.995	
0.50637	11.5502	21.8859	0.332	-11.0438	
0.513338	11.5294	21.8722	0.329981	-11.0161	
0.520307	11.4809	21.9337	0.337768	-10.9606	
0.555149	11.5017	21.9132	0.35796	-10.9465	
0.64574	11.4532	21.9337	0.329115	-10.8074	
0.673615	11.3631	21.961	0.327673	-10.6894	
0.680583	11.3215	21.9678	0.312962	-10.6409	
0.666646	11.3353	21.9269	0.321904	-10.6687	
0.750268	11.2383	21.9132	0.334307	-10.488	
0.868733	11.2383	21.961	0.356229	-10.3696	
0.882671	11.1898	21.9678	0.340653	-10.3071	
0.959324	11.1551	21.9473	0.317289	-10.1958	
0.98023	11.1066	22.0224	0.295656	-10.1264	
0.98023	11.0997	21.9883	0.291906	-10.1194	
1.03598	11.0789	22.0088	0.304597	-10.0429	
1.09173	10.9818	22.0088	0.298829	-9.89009	
1.18929	10.9957	21.9746	0.295367	-9.8064	
1.18232	10.961	21.9815	0.300271	-9.77871	
1.15444	10.9333	22.0156	0.308347	-9.77885	
1.14051	10.9264	22.0361	0.28383	-9.78586	
1.17535	10.8709	22.0838	0.269119	-9.69557	
1.11263	10.9125	22.0907	0.278061	-9.79987	
1.15444	10.8917	22.0634	0.252389	-9.73727	
1.15444	10.8224	22.0565	0.250947	-9.66795	
1.18929	10.8501	22.0975	0.246909	-9.66083	
1.2311	10.8363	22.0907	0.256139	-9.60516	
1.2311	10.7877	22.1248	0.252966	-9.55664	
1.20322	10.7808	22.1112	0.244024	-9.57758	
1.21716	10.7669	22.1589	0.239698	-9.54978	
1.22413	10.7115	22.1862	0.214026	-9.48736	
1.22413	10.7531	22.1658	0.23191	-9.52895	
1.30078	10.76	22.2204	0.225276	-9.45923	
1.26594	10.7877	22.234	0.235948	-9.5218	
1.252	10.8085	22.2545	0.21518	-9.55653	
1.21019	10.8432	22.2477	0.229025	-9.633	
1.30775	10.8986	22.2818	0.212584	-9.59089	
1.33563	10.9125	22.2886	0.207104	-9.57688	
1.34259	10.961	22.2886	0.206238	-9.61843	
1.32866	11.0373	22.3296	0.18922	-9.70861	
1.3635	11.0719	22.3228	0.19672	-9.70843	
1.41925	11.1343	22.3228	0.186913	-9.71506	
1.43318	11.1066	22.3569	0.199316	-9.6734	
1.44015	11.162	22.391	0.177971	-9.72188	
1.475	11.2244	22.3705	0.181721	-9.74943	
1.52378	11.2244	22.3774	0.176529	-9.70065	
1.52378	11.2314	22.3774	0.168741	-9.70758	
1.51681	11.2799	22.391	0.166722	-9.76307	
1.50984	11.3007	22.3842	0.165279	-9.79083	
1.48196	11.3492	22.4524	0.143358	-9.86722	
1.54468	11.3492	22.4729	0.142492	-9.80451	
1.54468	11.4393	22.4593	0.15951	-9.89462	
1.57952	11.3977	22.4456	0.140762	-9.81819	
1.53771	11.4393	22.4524	0.130089	-9.90159	
1.57952	11.5155	22.4661	0.120282	-9.93602	
1.65618	11.5571	22.507	0.105572	-9.90096	
1.68405	11.5918	22.507	0.100091	-9.90774	
1.64921	11.6264	22.5139	0.102976	-9.97724	
1.69799	11.7027	22.507	0.0920147	-10.0047	
1.74677	11.7651	22.5412	0.090284	-10.0183	
1.76071	11.7997	22.548	0.085092	-10.039	
1.76767	11.8205	22.5617	0.0787463	-10.0529	
1.78858	11.8621	22.6026	0.0755734	-10.0735	
1.80252	11.973	22.6299	0.0721121	-10.1705	
1.77464	12.0215	22.589	0.0516326	-10.2469	
0.513338	12.0146	22.6572	-0.00259477	-11.5013	
-0.0789871	12.0493	22.6299	-0.044996	-12.1283	
1.18232	12.0839	22.6026	-0.0721096	-10.9016	
1.18929	12.077	22.705	-0.0556684	-10.8877	
1.33563	12.1394	22.6436	-0.0291316	-10.8038	
1.06385	12.174	22.6504	-0.0680714	-11.1102	
0.687552	12.2641	22.6982	-0.0897047	-11.5766	
1.04295	12.2226	22.7255	-0.104704	-11.1796	
0.994167	12.2434	22.7323	-0.110473	-11.2492	
1.26594	12.2849	22.7255	-0.0992233	-11.019	
1.23807	12.3404	22.7391	-0.101531	-11.1023	
1.30775	12.3057	22.7596	-0.102685	-10.998	
1.48196	12.3612	22.7596	-0.0989349	-10.8792	
1.44712	12.4236	22.7937	-0.0963389	-10.9765	
1.4959	12.4236	22.8006	-0.0951851	-10.9277	
1.50984	12.4582	22.7801	-0.101242	-10.9484	
1.55862	12.5275	22.8279	-0.108454	-10.9689	
1.67011	12.5483	22.821	-0.10903	-10.8782	
1.81645	12.6246	22.8552	-0.103838	-10.8081	
1.82342	12.6384	22.8688	-0.112492	-10.815	
1.8722	12.687	22.8825	-0.11653	-10.8148	
1.94886	12.7008	22.862	-0.122876	-10.752	
1.91401	12.7563	22.8825	-0.126049	-10.8423	
1.92795	12.7632	22.9098	-0.128356	-10.8353	
2.0046	12.7979	22.9507	-0.133548	-10.7933	
2.0046	12.8048	22.9371	-0.14249	-10.8002	
2.07429	12.8325	22.9439	-0.155181	-10.7582	
2.08823	12.888	22.9234	-0.164988	-10.7998	
2.14398	12.9365	22.9507	-0.166142	-10.7925	
2.12307	12.992	22.9234	-0.177968	-10.8689	
2.21366	12.992	22.9712	-0.174796	-10.7783	
2.26244	13.0335	22.978	-0.193256	-10.7711	
2.27638	13.0682	22.9712	-0.210562	-10.7918	
2.29031	13.0682	22.9849	-0.221812	-10.7779	
2.37394	13.0821	22.9507	-0.226138	-10.7081	
2.48543	13.1444	22.9985	-0.229888	-10.659	
2.50634	13.1791	23.0122	-0.248349	-10.6728	
2.53421	13.2276	23.0122	-0.262482	-10.6934	
2.52724	13.2415	22.9849	-0.253829	-10.7142	
2.54815	13.2207	22.9849	-0.259598	-10.6725	
2.63874	13.2484	23.0053	-0.263636	-10.6097	
2.63874	13.29	23.0258	-0.272866	-10.6513	
2.63874	13.2138	23.019	-0.246329	-10.575	
2.63177	13.3316	22.9917	-0.290461	-10.6998	
2.65268	13.3039	23.0122	-0.27402	-10.6512	
2.67358	13.29	22.978	-0.26854	-10.6164	
2.75024	13.29	23.019	-0.265078	-10.5398	
2.75024	13.3108	23.0053	-0.310652	-10.5606	
2.75721	13.3108	22.9917	-0.297672	-10.5536	
2.79902	13.3108	23.0053	-0.29623	-10.5118	
2.80599	13.29	23.0326	-0.306326	-10.484	
2.92445	13.3247	23.0053	-0.316998	-10.4002	
2.95929	13.3039	22.9576	-0.326517	-10.3446	
3.01504	13.3039	22.9985	-0.388532	-10.2888	
3.07079	13.2969	23.0122	-0.351323	-10.2262	
3.09866	13.2831	22.978	-0.360265	-10.1844	
3.12654	13.3039	23.0053	-0.342093	-10.1773	
3.20319	13.3108	22.9917	-0.338343	-10.1076	
3.20319	13.3177	22.9985	-0.400935	-10.1145	
3.23107	13.3177	23.0053	-0.353342	-10.0867	
3.17532	13.2692	22.9507	-0.306326	-10.0939	
3.16138	13.2831	22.9849	-0.368053	-10.1217	
3.13351	13.3108	22.9371	-0.339208	-10.1773	
3.07776	13.2761	22.9507	-0.385936	-10.1984	
3.08473	13.3177	22.9576	-0.37411	-10.233	
3.06382	13.29	23.0326	-0.386513	-10.2262	
3.00807	13.2692	22.978	-0.376706	-10.2611	
2.91748	13.3455	22.9849	-0.365745	-10.428	
2.82689	13.3108	22.9644	-0.340362	-10.4839	
2.82689	13.3455	23.0053	-0.336612	-10.5186	
2.76417	13.3524	23.0122	-0.347573	-10.5882	
2.75024	13.3593	22.978	-0.364303	-10.6091	
2.77811	13.3385	22.9371	-0.364014	-10.5604	
2.71539	13.3663	22.9576	-0.342381	-10.6509	
2.70146	13.4148	22.9303	-0.411896	-10.7133	
2.72933	13.4425	22.9166	-0.357957	-10.7132	
2.68752	13.4772	22.9439	-0.332574	-10.7896	
2.68055	13.4702	22.978	-0.356803	-10.7897	
2.71539	13.4633	22.9029	-0.359976	-10.7479	
2.65268	13.5187	22.9576	-0.345554	-10.8661	
2.70146	13.5465	22.9166	-0.352477	-10.845	
2.65965	13.5257	22.9576	-0.342093	-10.866	
2.65268	13.5742	22.9303	-0.337766	-10.9215	
2.65965	13.6643	22.8756	-0.348438	-11.0047	
2.64571	13.6504	22.9029	-0.323632	-11.0047	
2.54118	13.7059	22.9166	-0.307479	-11.1647	
2.56906	13.7336	22.9029	-0.331132	-11.1646	
2.51331	13.7821	22.9166	-0.326228	-11.2688	
2.48543	13.8237	22.9234	-0.319594	-11.3383	
2.45756	13.8931	22.9439	-0.339208	-11.4355	
2.53421	13.9069	22.9371	-0.314402	-11.3727	
2.38787	14.0109	22.9303	-0.291615	-11.623	
2.31122	14.0386	22.8961	-0.310364	-11.7274	
2.28335	14.1287	22.9303	-0.265655	-11.8454	
2.27638	14.1703	22.9303	-0.310941	-11.8939	
2.21366	14.2188	22.978	-0.267386	-12.0052	
2.19972	14.3159	22.9234	-0.290173	-12.1161	
2.13004	14.3921	22.9439	-0.248637	-12.2621	
2.06732	14.406	22.9507	-0.289019	-12.3387	
2.05338	14.4961	22.9917	-0.275174	-12.4427	
2.01854	14.51	22.9576	-0.266809	-12.4914	
1.90008	14.6001	22.9576	-0.248349	-12.7	
1.93492	14.6278	23.0395	-0.248349	-12.6929	
1.80949	14.6624	23.019	-0.245464	-12.853	
1.80252	14.7456	23.0531	-0.250079	-12.9431	
1.86523	14.7595	23.0531	-0.265078	-12.8943	
1.83736	14.808	23.0668	-0.255848	-12.9707	
1.81645	14.7941	23.0258	-0.21835	-12.9777	
1.76767	14.8773	23.0736	-0.202775	-13.1097	
1.76767	14.8496	23.0463	-0.202486	-13.0819	
1.81645	14.8843	23.0736	-0.25556	-13.0678	
1.8513	14.8704	23.0668	-0.28152	-13.0191	
1.81645	14.8912	23.0326	-0.254117	-13.0747	
1.83039	14.9258	23.0668	-0.198448	-13.0955	
1.79555	14.9258	23.0668	-0.19989	-13.1303	
1.8722	14.9051	23.1009	-0.232484	-13.0328	
1.94189	14.912	23.0736	-0.256425	-12.9701	
1.94189	14.9051	23.1214	-0.27027	-12.9632	
1.9837	14.9466	23.0053	-0.232196	-12.9629	
1.9837	14.9882	23.0736	-0.21835	-13.0045	
2.02551	14.9466	23.0463	-0.210562	-12.9211	
2.04642	15.0021	23.0668	-0.242003	-12.9557	
2.10913	15.0298	23.0804	-0.291904	-12.9207	
2.16488	15.0714	23.0395	-0.257579	-12.9065	
2.08126	15.0506	23.0463	-0.253541	-12.9694	
2.13004	15.0991	23.0463	-0.228158	-12.9691	
2.16488	15.1477	23.0326	-0.278924	-12.9828	
2.10216	15.0922	23.0804	-0.260175	-12.99	
2.17185	15.1684	23.0326	-0.249791	-12.9966	
2.13701	15.2031	23.0258	-0.226138	-13.0661	
2.0952	15.217	23.0599	-0.223542	-13.1218	
2.05338	15.2863	23.0326	-0.22585	-13.2329	
2.04642	15.2932	23.0258	-0.264501	-13.2468	
1.99067	15.3348	23.0258	-0.245464	-13.3441	
1.93492	15.3764	23.0599	-0.223542	-13.4415	
2.0046	15.4041	23.1214	-0.220081	-13.3995	
1.96279	15.5358	23.0668	-0.229023	-13.573	
1.85827	15.5635	23.0395	-0.217197	-13.7053	
1.86523	15.6537	23.0463	-0.203351	-13.7884	
1.84433	15.7438	23.0668	-0.229023	-13.8994	
1.8513	15.7438	23.1009	-0.239695	-13.8925	
1.77464	15.82	23.0941	-0.187775	-14.0454	
1.7398	15.8339	23.1009	-0.1647	-14.0941	
1.74677	15.9517	23.135	-0.221523	-14.2049	
1.7398	15.9586	23.0872	-0.226715	-14.2188	
1.73283	16.028	23.1077	-0.213735	-14.2951	
1.67708	16.0765	23.0668	-0.203928	-14.3994	
1.71889	16.1111	23.1009	-0.195275	-14.3922	
1.69799	16.1874	23.1214	-0.212005	-14.4894	
1.61437	16.1874	23.0599	-0.192679	-14.573	
1.63527	16.2567	23.0531	-0.183449	-14.6214	
1.56559	16.3191	23.0872	-0.19066	-14.7535	
1.58649	16.3399	23.0531	-0.189218	-14.7534	
1.59346	16.4438	23.0326	-0.173642	-14.8504	
1.50287	16.5201	23.0599	-0.165277	-15.0172	
1.4959	16.5409	23.0326	-0.169892	-15.045	
1.475	16.6033	23.0804	-0.162392	-15.1283	
1.45409	16.6587	23.0463	-0.157489	-15.2046	
1.46106	16.7072	23.0122	-0.175372	-15.2462	
1.43318	16.8043	23.0122	-0.163258	-15.3711	
1.34259	16.9152	23.0941	-0.143067	-15.5726	
1.32169	17.0053	22.9985	-0.124029	-15.6836	
1.30078	17.04	22.9712	-0.124029	-15.7392	
1.27291	17.1023	23.0326	-0.12951	-15.8294	
1.22413	17.1439	23.0736	-0.130375	-15.9198	
1.17535	17.234	22.9985	-0.115953	-16.0587	
1.1196	17.2895	23.0395	-0.100666	-16.1699	
1.10566	17.3172	22.9849	-0.0940313	-16.2116	
1.06385	17.338	23.0258	-0.0925891	-16.2742	
1.01507	17.3935	23.0053	-0.0882625	-16.3784	
1.00114	17.4558	22.9576	-0.0836474	-16.4547	
0.903576	17.4351	22.978	-0.0735519	-16.5315	
0.882671	17.4836	23.0053	-0.0686483	-16.6009	
0.882671	17.5529	22.978	-0.0663408	-16.6702	
0.875702	17.6083	22.9507	-0.0643217	-16.7326	
0.833891	17.6361	22.9985	-0.0605719	-16.8022	
0.833891	17.6638	22.9985	-0.0568221	-16.8299	
0.812985	17.6846	22.9849	-0.0582644	-16.8716	
0.847828	17.7054	22.9985	-0.0617257	-16.8576	
0.875702	17.7054	22.9985	-0.0565337	-16.8297	
0.819954	17.7678	23.0053	-0.0545146	-16.9478	
0.785111	17.8301	22.9985	-0.0516302	-17.045	
0.868733	17.8371	22.9917	-0.0507648	-16.9683	
0.826922	17.8925	22.9644	-0.0458613	-17.0656	
0.903576	17.8995	22.9576	-0.0470151	-16.9959	
0.840859	17.8925	22.9507	-0.044996	-17.0517	
0.826922	17.9064	22.9712	-0.0409578	-17.0795	
0.868733	17.9341	22.9576	-0.0392271	-17.0654	
0.882671	17.9549	22.9439	-0.0366311	-17.0722	
0.903576	17.9826	22.9576	-0.0386502	-17.0791	
0.903576	17.9896	22.9371	-0.039804	-17.086	
0.903576	17.9965	22.9576	-0.0377849	-17.0929	
0.896608	18.0312	22.9439	-0.0395155	-17.1346	
0.938419	18.0589	22.9507	-0.0386502	-17.1205	
0.973261	18.0104	22.9234	-0.0424	-17.0371	
0.966293	17.9896	22.9234	-0.0426884	-17.0233	
1.02204	17.9618	22.9507	-0.0452844	-16.9398	
1.04992	18.0173	22.978	-0.0498995	-16.9674	
1.15444	18.0658	22.9234	-0.0513417	-16.9114	
1.17535	18.0104	22.9849	-0.0542261	-16.835	
1.21019	18.0173	22.9576	-0.0582644	-16.8071	
1.2311	18.0658	22.9098	-0.0657639	-16.8347	
1.34259	18.0173	22.9917	-0.0738403	-16.6747	
1.39834	18.0312	22.9234	-0.085378	-16.6328	
1.46803	18.1005	22.8961	-0.0923007	-16.6324	
1.48893	18.0935	22.9303	-0.0963389	-16.6046	
1.55862	18.0312	22.9371	-0.0948967	-16.4725	
1.6074	18.0589	22.9166	-0.09057	-16.4515	
1.6283	18.0242	22.9303	-0.0934545	-16.3959	
1.66315	17.9757	22.9644	-0.0943198	-16.3126	
1.67708	17.9618	22.8961	-0.0960504	-16.2848	
1.67708	17.8787	22.8688	-0.0943198	-16.2016	
1.64224	17.8717	22.8893	-0.0992233	-16.2295	
1.67011	17.8301	22.9098	-0.102685	-16.16	
1.7398	17.8163	22.8825	-0.107877	-16.0765	
1.78161	17.7886	22.862	-0.115953	-16.0069	
1.85827	17.7123	22.9098	-0.125472	-15.854	
1.85827	17.7054	22.8415	-0.13874	-15.8471	
1.87917	17.6777	22.821	-0.151432	-15.7985	
1.99067	17.6153	22.7596	-0.162681	-15.6246	
2.04642	17.5667	22.8347	-0.1647	-15.5203	
2.1161	17.4974	22.7801	-0.172488	-15.3813	
2.19972	17.4489	22.8074	-0.180276	-15.2492	
2.19275	17.4281	22.7391	-0.209697	-15.2354	
2.2485	17.338	22.7118	-0.214312	-15.0895	
2.30425	17.3449	22.7733	-0.215178	-15.0407	
2.32516	17.3241	22.7187	-0.209409	-14.999	
2.29031	17.2271	22.7187	-0.210851	-14.9368	
2.35303	17.2479	22.705	-0.206813	-14.8949	
2.33909	17.1439	22.7391	-0.214024	-14.8048	
2.33909	17.1439	22.7323	-0.218062	-14.8048	
2.27638	17.0885	22.7118	-0.205082	-14.8121	
2.20669	17.04	22.6845	-0.204217	-14.8333	
2.22063	16.9984	22.6777	-0.216908	-14.7777	
2.15791	16.9984	22.7118	-0.206236	-14.8405	
2.15791	16.9984	22.6777	-0.195852	-14.8405	
2.06035	17.04	22.6709	-0.203063	-14.9796	
1.99067	16.9845	22.6982	-0.191237	-14.9938	
2.01157	16.9776	22.6913	-0.194698	-14.966	
1.97673	16.9429	22.6436	-0.196717	-14.9662	
1.86523	16.8875	22.7187	-0.184314	-15.0222	
1.85827	16.9221	22.6845	-0.185179	-15.0639	
1.83736	16.8667	22.6777	-0.199025	-15.0293	
1.80949	16.8944	22.6709	-0.190948	-15.0849	
1.78858	16.832	22.6572	-0.18691	-15.0434	
1.73283	16.8667	22.6504	-0.179699	-15.1338	
1.77464	16.8181	22.6436	-0.182872	-15.0435	
1.69102	16.8389	22.5821	-0.176238	-15.1479	
1.67708	16.8251	22.6367	-0.18691	-15.148	
1.69102	16.8528	22.5753	-0.187487	-15.1618	
1.6283	16.8875	22.5753	-0.180276	-15.2592	
1.59346	16.8597	22.5958	-0.179122	-15.2663	
1.63527	16.8667	22.5753	-0.173353	-15.2314	
1.57952	16.8944	22.5685	-0.166142	-15.3149	
1.53074	16.8875	22.5753	-0.172488	-15.3567	
1.55862	16.9013	22.5617	-0.176815	-15.3427	
1.50984	16.9706	22.548	-0.163258	-15.4608	
1.46803	16.9568	22.4934	-0.140182	-15.4887	
1.46803	17.0122	22.5821	-0.137586	-15.5442	
1.41925	17.0677	22.5275	-0.148836	-15.6484	
1.40531	17.0954	22.5275	-0.154316	-15.6901	
1.32169	17.1717	22.5344	-0.137875	-15.85	
1.25897	17.1647	22.5412	-0.124895	-15.9058	
1.18232	17.234	22.5617	-0.108165	-16.0517	
1.18232	17.2618	22.5275	-0.107877	-16.0794	
1.10566	17.3241	22.5139	-0.102396	-16.2185	
1.07779	17.3311	22.5207	-0.100377	-16.2533	
1.05688	17.4073	22.5958	-0.0819167	-16.3504	
0.952356	17.4004	22.589	-0.0784554	-16.448	
0.93145	17.4905	22.5753	-0.0715328	-16.5591	
0.875702	17.5044	22.5753	-0.0643217	-16.6287	
0.840859	17.5113	22.6026	-0.0611488	-16.6704	
0.806017	17.4974	22.6367	-0.0571106	-16.6914	
0.833891	17.5321	22.6709	-0.0591297	-16.6982	
0.812985	17.5529	22.6299	-0.0524955	-16.7399	
0.757237	17.5529	22.6436	-0.0481688	-16.7956	
0.785111	17.539	22.6572	-0.0461497	-16.7539	
0.778143	17.4697	22.6504	-0.0438422	-16.6916	
0.79208	17.4558	22.664	-0.047592	-16.6638	
0.750268	17.4766	22.6163	-0.0542261	-16.7264	
0.785111	17.4905	22.6572	-0.0553799	-16.7054	
0.875702	17.4836	22.6572	-0.0582644	-16.6079	
0.903576	17.4558	22.6504	-0.0623026	-16.5523	
0.917513	17.4351	22.6504	-0.0657639	-16.5175	
1.01507	17.4281	22.664	-0.0715328	-16.413	
1.18929	17.3657	22.6026	-0.0738403	-16.1764	
1.1196	17.4073	22.6163	-0.0744172	-16.2877	
1.2311	17.4628	22.6299	-0.0830705	-16.2317	
1.23807	17.3449	22.6436	-0.0917238	-16.1069	
1.30775	17.3519	22.5753	-0.095762	-16.0441	
1.34956	17.3796	22.589	-0.0960504	-16.03	
1.42622	17.4073	22.6026	-0.0925891	-15.9811	
1.44712	17.3796	22.5753	-0.0972042	-15.9325	
1.54468	17.4073	22.6231	-0.0977811	-15.8626	
1.51681	17.4143	22.6436	-0.0974927	-15.8974	
1.58649	17.4281	22.6231	-0.0940313	-15.8416	
1.54468	17.4558	22.6026	-0.0923007	-15.9112	
1.55862	17.4697	22.5685	-0.0914354	-15.9111	
1.52378	17.4351	22.5958	-0.087974	-15.9113	
1.50287	17.4836	22.5958	-0.0871087	-15.9807	
1.4959	17.539	22.5958	-0.0822052	-16.0431	
1.44712	17.6014	22.6163	-0.0784554	-16.1543	
1.42622	17.5875	22.6094	-0.0721096	-16.1613	
1.35653	17.6222	22.5821	-0.0680714	-16.2657	
1.34956	17.7539	22.6504	-0.0660523	-16.4043	
1.25897	17.74	22.6504	-0.0628795	-16.4811	
1.20322	17.8163	22.6231	-0.059995	-16.6131	
1.20322	17.8301	22.6504	-0.0550915	-16.6269	
1.16141	17.8579	22.6913	-0.0559568	-16.6965	
1.1196	17.8856	22.6709	-0.052207	-16.766	
1.10566	17.9411	22.6299	-0.052207	-16.8354	
1.08476	18.0034	22.6572	-0.0519186	-16.9187	
1.07082	18.0381	22.6982	-0.0536493	-16.9673	
1.04295	18.0727	22.6845	-0.0527839	-17.0298	
0.966293	18.0866	22.6231	-0.0464382	-17.1203	
0.973261	18.1698	22.6572	-0.0447075	-17.1965	
0.952356	18.1975	22.664	-0.0432653	-17.2452	
0.945387	18.1559	22.6367	-0.0412462	-17.2105	
0.875702	18.2668	22.6845	-0.0360542	-17.3911	
0.882671	18.3015	22.6572	-0.0317276	-17.4188	
0.79208	18.3292	22.6094	-0.0265356	-17.5371	
0.79208	18.3708	22.6436	-0.0213436	-17.5787	
0.687552	18.4124	22.664	-0.0193245	-17.7248	
0.708457	18.4817	22.6094	-0.0175938	-17.7733	
0.659677	18.5025	22.6231	-0.0147094	-17.8428	
0.652709	18.6134	22.6094	-0.0112481	-17.9607	
0.596961	18.6342	22.5821	-0.00778676	-18.0372	
0.596961	18.6897	22.6572	-0.00634454	-18.0927	
0.541212	18.7659	22.589	-0.00288322	-18.2247	
0.464559	18.8144	22.6163	-0.0060561	-18.3499	
0.436684	18.9253	22.5617	-0.00201789	-18.4886	
0.360031	18.9669	22.5958	-0.00259477	-18.6069	
0.26944	19.0154	22.5821	0.000866547	-18.746	
0.234597	19.0778	22.6026	0.00634697	-18.8432	
0.185817	19.1333	22.6299	0.0103852	-18.9475	
0.0952262	19.1055	22.6163	0.0141349	-19.0103	
0.0185724	19.2026	22.6231	0.0210576	-19.184	
-0.051113	19.2234	22.6094	0.0253842	-19.2745	
-0.106861	19.2234	22.6026	0.0323069	-19.3302	
-0.169578	19.258	22.6163	0.0346144	-19.4276	
-0.281075	19.2858	22.6777	0.0377873	-19.5668	
-0.315917	19.258	22.6026	0.0409602	-19.574	
-0.490131	19.3135	22.5821	0.0392295	-19.8036	
-0.511036	19.3897	22.6367	0.0372104	-19.9008	
-0.629501	19.3412	22.6231	0.03173	-19.9707	
-0.713124	19.3274	22.6094	0.0314416	-20.0405	
-0.77584	19.4036	22.6299	0.0363451	-20.1794	
-0.866431	19.3412	22.6299	0.0328838	-20.2076	
-0.936117	19.3967	22.6026	0.0305762	-20.3328	
-0.984896	19.4244	22.6709	0.0320184	-20.4093	
-1.11033	19.3759	22.6367	0.029134	-20.4862	
-1.18002	19.362	22.5685	0.0305762	-20.542	
-1.24273	19.3828	22.6026	0.0340375	-20.6255	
-1.32635	19.3967	22.664	0.0305762	-20.723	
-1.42391	19.3759	22.5821	0.0308647	-20.7998	
-1.50754	19.3343	22.6026	0.0311531	-20.8418	
-1.55632	19.3066	22.6777	0.0325953	-20.8629	
-1.63994	19.3343	22.589	0.0357682	-20.9742	
-1.7584	19.2788	22.589	0.034326	-21.0372	
-1.83506	19.2788	22.5685	0.0354798	-21.1139	
-1.92565	19.2442	22.6231	0.0372104	-21.1698	
-1.96746	19.2234	22.5548	0.0380758	-21.1908	
-2.05108	19.2719	22.5685	0.0349029	-21.323	
-2.14864	19.161	22.6094	0.0366335	-21.3096	
-2.19742	19.1402	22.6231	0.0334607	-21.3376	
-2.25317	19.0501	22.6163	0.0323069	-21.3033	
-2.3786	19.0778	22.5344	0.0334607	-21.4564	
-2.42041	19.0016	22.5002	0.0323069	-21.422	
-2.47616	18.9946	22.5958	0.0294224	-21.4708	
-2.58766	18.9738	22.5344	0.0245189	-21.5615	
-2.6225	18.9253	22.589	0.0204807	-21.5478	
-2.66431	18.8629	22.5617	0.0210576	-21.5273	
-2.734	18.7936	22.548	0.0147118	-21.5276	
-2.76884	18.7936	22.5275	0.0184616	-21.5625	
-2.85246	18.6481	22.589	0.0204807	-21.5005	
-2.90821	18.6203	22.5275	0.023942	-21.5285	
-2.95002	18.5372	22.5139	0.0268265	-21.4872	
-3.05455	18.454	22.507	0.0271149	-21.5085	
-3.11727	18.3431	22.4797	0.0282687	-21.4603	
-3.17302	18.3015	22.4866	0.0320184	-21.4745	
-3.18695	18.2183	22.4388	0.0311531	-21.4053	
-3.3542	18.0866	22.4524	0.0299993	-21.4408	
-3.38207	17.9896	22.4388	0.0268265	-21.3716	
-3.38207	17.9133	22.4456	0.0216345	-21.2954	
-3.45176	17.8301	22.391	0.0173078	-21.2819	
-3.42388	17.7123	22.4047	0.0144234	-21.1362	
-3.3751	17.6083	22.4047	0.0126927	-20.9834	
-3.31936	17.4351	22.3501	0.00634697	-20.7544	
-3.2427	17.3935	22.3228	0.00836608	-20.6362	
-3.20786	17.2618	22.3569	0.0100967	-20.4696	
-3.09636	17.1439	22.275	0.0118274	-20.2403	
-3.00577	17.0469	22.275	0.0236536	-20.0527	
-2.76884	16.9221	22.2613	0.0328838	-19.691	
-2.57372	16.7835	22.2545	0.0504788	-19.3572	
-2.43435	16.6657	22.2954	0.0724005	-19.1	
-2.31589	16.5409	22.1999	0.095476	-18.8568	
-2.12774	16.4785	22.1931	0.123167	-18.6062	
-2.0023	16.3745	22.2204	0.15778	-18.3768	
-1.88384	16.2706	22.2477	0.205085	-18.1544	
-1.81415	16.1181	22.2135	0.238544	-17.9322	
-1.68175	16.0695	22.1999	0.250947	-17.7513	
-1.59116	15.924	22.1589	0.266523	-17.5151	
-1.47269	15.8477	22.2272	0.293348	-17.3204	
-1.3612	15.7923	22.1794	0.309213	-17.1535	
-1.34029	15.7022	22.1453	0.316712	-17.0425	
-1.24273	15.5843	22.1453	0.327096	-16.8271	
-1.15911	15.5289	22.2135	0.332288	-16.688	
-1.06852	15.3972	22.1726	0.35796	-16.4657	
-0.908243	15.3487	22.1453	0.370074	-16.2569	
-0.845526	15.2863	22.0838	0.371516	-16.1318	
-0.740998	15.1477	22.1248	0.360844	-15.8887	
-0.615564	15.0645	22.118	0.389688	-15.68	
-0.518005	14.9813	22.0702	0.390554	-15.4993	
-0.39954	14.9258	22.0702	0.427186	-15.3254	
-0.322886	14.8773	22.0429	0.41161	-15.2002	
-0.225326	14.7803	22.0497	0.36344	-15.0056	
-0.204421	14.7387	22.0361	0.40613	-14.9431	
-0.051113	14.6347	22.0156	0.415071	-14.6858	
0.0464465	14.5793	22.0088	0.436705	-14.5328	
0.0882577	14.5515	22.0019	0.439301	-14.4633	
0.0673521	14.503	21.9542	0.432955	-14.4357	
0.102195	14.4406	21.9815	0.427763	-14.3384	
0.185817	14.3921	21.9883	0.464972	-14.2063	
0.213691	14.3644	21.9951	0.458338	-14.1507	
0.22066	14.2535	21.9269	0.454011	-14.0328	
0.234597	14.2327	21.961	0.439012	-13.9981	
0.109163	14.2258	21.8996	0.434974	-14.1166	
0.0673521	14.2327	21.8791	0.428917	-14.1653	
0.0116038	14.1772	21.9337	0.46353	-14.1656	
-0.134735	14.1218	21.9064	0.426609	-14.2565	
-0.141704	14.0871	21.9269	0.419398	-14.2288	
-0.204421	14.0525	21.9132	0.402668	-14.2569	
-0.274106	14.0178	21.9815	0.39488	-14.2919	
-0.329854	13.9901	21.9405	0.41709	-14.3199	
-0.364697	14.0178	21.9269	0.429493	-14.3825	
-0.385603	13.9138	21.9337	0.403534	-14.2994	
-0.476194	13.8861	21.92	0.424302	-14.3623	
-0.490131	13.8653	21.9473	0.436993	-14.3555	
-0.566784	13.8099	21.92	0.400072	-14.3767	
-0.63647	13.7198	21.9269	0.420263	-14.3562	
-0.524973	13.6851	21.9678	0.424013	-14.2101	
-0.53891	13.6504	21.9337	0.422282	-14.1894	
-0.462256	13.5326	21.9132	0.436993	-13.9949	
-0.371666	13.5187	21.8996	0.414494	-13.8904	
-0.30198	13.4356	21.8996	0.448531	-13.7376	
-0.218358	13.4217	21.9473	0.47651	-13.6401	
-0.0302074	13.3524	21.9678	0.496124	-13.3826	
0.116132	13.2346	21.9746	0.453146	-13.1184	
0.255503	13.1999	21.9132	0.468145	-12.9444	
0.40881	13.1167	21.9473	0.484009	-12.7079	
0.666646	13.0543	21.9405	0.503335	-12.3877	
0.729363	12.9989	21.961	0.51545	-12.2695	
0.840859	12.9642	21.9815	0.461222	-12.1234	
0.79208	12.8325	21.9678	0.477087	-12.0405	
0.589992	12.7979	21.9269	0.482856	-12.2079	
0.527275	12.7494	21.9132	0.439877	-12.2221	
0.50637	12.6662	21.92	0.434974	-12.1598	
0.499401	12.6177	21.9337	0.424302	-12.1183	
0.50637	12.5761	21.92	0.434685	-12.0697	
0.548181	12.486	21.92	0.371805	-11.9378	
0.576055	12.4721	21.8586	0.440743	-11.896	
0.603929	12.4097	21.9064	0.447665	-11.8058	
0.64574	12.4166	21.9132	0.416514	-11.7709	
0.631803	12.3196	21.8996	0.403245	-11.6878	
0.666646	12.2226	21.8996	0.418821	-11.5559	
0.617866	12.2364	21.9132	0.445646	-11.6186	
0.638772	12.2156	21.8996	0.431513	-11.5769	
0.596961	12.1255	21.8654	0.40411	-11.5286	
0.548181	12.1117	21.8859	0.382477	-11.5635	
0.562118	12.1047	21.8859	0.405553	-11.5426	
0.492433	12.0008	21.9064	0.396899	-11.5083	
0.548181	12.0285	21.8791	0.421706	-11.4803	
0.436684	12.0285	21.9542	0.436128	-11.5918	
0.394873	11.98	21.9269	0.402957	-11.5851	
0.366999	11.9938	21.961	0.442473	-11.6268	
0.373968	11.9592	21.9542	0.432089	-11.5852	
0.311251	11.9453	21.8859	0.43007	-11.634	
0.353062	11.9938	21.9542	0.430359	-11.6408	
0.353062	11.98	21.9542	0.406418	-11.6269	
0.241565	11.9453	21.9269	0.395746	-11.7037	
0.234597	12.0285	21.9337	0.415937	-11.7939	
0.206723	11.98	21.9815	0.42459	-11.7732	
0.262471	11.9661	21.9746	0.410745	-11.7036	
0.255503	11.98	21.9678	0.451415	-11.7245	
0.241565	11.9661	21.9815	0.423148	-11.7245	
0.178849	11.9245	21.9337	0.428917	-11.7457	
0.137037	11.9453	21.9815	0.451415	-11.8083	
0.234597	11.8621	21.9269	0.475644	-11.6275	
0.213691	11.8344	21.9473	0.450838	-11.6207	
0.199754	11.8413	21.9678	0.453434	-11.6416	
0.206723	11.8136	21.9678	0.452569	-11.6069	
0.185817	11.7928	21.9542	0.456319	-11.607	
0.192786	11.7997	21.9542	0.468433	-11.607	
0.234597	11.7235	21.9815	0.492374	-11.4889	
0.283377	11.7235	21.9269	0.47824	-11.4401	
0.290345	11.7235	21.9405	0.476798	-11.4331	
0.304282	11.6958	21.9542	0.466703	-11.3915	
0.262471	11.7443	21.9883	0.467856	-11.4818	
0.318219	11.668	21.961	0.480548	-11.3498	
0.297314	11.6542	22.0224	0.481413	-11.3569	
0.276408	11.6403	22.0156	0.510835	-11.3639	
0.318219	11.668	22.0156	0.522372	-11.3498	
0.297314	11.571	22.0019	0.502758	-11.2737	
0.262471	11.5225	22.0224	0.498431	-11.26	
0.276408	11.5225	22.0088	0.496989	-11.2461	
0.241565	11.4601	22.0292	0.490355	-11.2185	
0.276408	11.4601	22.0156	0.493816	-11.1837	
0.325188	11.4185	21.9746	0.484586	-11.0933	
0.346093	11.3492	22.0497	0.483144	-11.0031	
0.401842	11.2868	22.0224	0.507662	-10.885	
0.332156	11.1828	22.0702	0.526987	-10.8507	
0.360031	11.1412	22.0497	0.516027	-10.7812	
0.401842	11.1343	21.9883	0.510258	-10.7325	
0.471527	11.0442	22.0361	0.508527	-10.5727	
0.401842	11.0026	22.0634	0.534198	-10.6008	
0.527275	10.9402	22.0156	0.484875	-10.413	
0.548181	10.864	22.0565	0.503912	-10.3158	
0.562118	10.7531	22.0702	0.486894	-10.191	
0.603929	10.7947	22.0497	0.468433	-10.1907	
0.778143	10.7254	22.0702	0.480836	-9.94721	
0.673615	10.6699	22.1112	0.509681	-9.99629	
0.659677	10.5937	22.1112	0.52641	-9.93398	
0.750268	10.5313	22.0565	0.529295	-9.781	
0.771174	10.4758	22.118	0.498431	-9.70464	
0.729363	10.4065	22.1248	0.479683	-9.67714	
0.736331	10.3164	22.1453	0.453723	-9.58006	
0.771174	10.2817	22.118	0.460357	-9.51056	
0.806017	10.2263	22.1589	0.466126	-9.42027	
0.785111	10.1431	22.1931	0.475356	-9.358	
0.847828	10.0807	22.1794	0.439301	-9.2329	
0.847828	10.0114	22.2135	0.471029	-9.16358	
0.819954	10.0322	22.1658	0.426609	-9.21225	
0.896608	9.95596	22.2135	0.424302	-9.05935	
0.959324	9.87971	22.1794	0.449685	-8.92038	
0.910545	9.84505	22.2272	0.423148	-8.93451	
1.05688	9.77574	22.2204	0.429782	-8.71885	
1.04295	9.73415	22.2545	0.425455	-8.6912	
1.0987	9.70642	22.234	0.396322	-8.60773	
1.09173	9.67176	22.2272	0.416514	-8.58004	
1.25897	9.59552	22.3228	0.37267	-8.33655	
1.26594	9.56086	22.2681	0.347287	-8.29492	
1.26594	9.56086	22.2818	0.371805	-8.29492	
1.30078	9.47768	22.3159	0.385073	-8.1769	
1.252	9.3945	22.3432	0.374978	-8.1425	
1.30078	9.35291	22.3501	0.35046	-8.05213	
1.34956	9.31826	22.3501	0.326808	-7.96869	
1.40531	9.22815	22.3501	0.321327	-7.82284	
1.39834	9.16576	22.391	0.319597	-7.76742	
1.37047	9.17963	22.3569	0.350748	-7.80916	
1.41925	9.10338	22.4047	0.310078	-7.68413	
1.45409	9.041	22.4047	0.292771	-7.58691	
1.57952	8.93009	22.4183	0.262485	-7.35057	
1.66315	8.90237	22.4115	0.24114	-7.23922	
1.7398	8.83305	22.4456	0.255274	-7.09325	
1.78858	8.81226	22.4388	0.23364	-7.02368	
1.8513	8.76374	22.4115	0.21143	-6.91244	
1.97673	8.74987	22.4183	0.190085	-6.77314	
2.01854	8.69442	22.4524	0.165568	-6.67588	
2.15094	8.65283	22.4115	0.164414	-6.50189	
2.2485	8.59738	22.4797	0.132974	-6.34888	
2.33213	8.60431	22.4524	0.123167	-6.27219	
2.35303	8.56272	22.5275	0.126051	-6.20969	
2.36697	8.52113	22.548	0.0969182	-6.15417	
2.42969	8.48648	22.5344	0.0634588	-6.05679	
2.45756	8.50034	22.5821	0.0464406	-6.04278	
2.44362	8.47955	22.5412	0.0536517	-6.03592	
2.38787	8.49341	22.5753	0.0392295	-6.10553	
2.32516	8.42409	22.5958	0.0230767	-6.09894	
2.29728	8.41023	22.5958	0.00778919	-6.11295	
0.826922	8.36171	22.6436	-0.0559568	-7.53479	
0.0673521	8.38944	22.6777	-0.0752825	-8.32208	
1.62134	8.36864	22.6367	-0.116241	-6.74731	
1.65618	8.34785	22.6504	-0.139317	-6.69167	
1.83736	8.38944	22.6504	-0.152297	-6.55208	
1.50984	8.32705	22.6913	-0.19441	-6.81721	
1.17535	8.36864	22.6436	-0.18143	-7.19329	
1.41228	8.34091	22.6982	-0.162392	-6.92864	
1.35653	8.32705	22.7187	-0.173353	-6.97052	
1.67011	8.35478	22.7255	-0.179987	-6.68466	
1.56559	8.41023	22.7733	-0.195563	-6.84464	
1.6283	8.39637	22.7596	-0.171623	-6.76806	
1.78858	8.46568	22.7733	-0.165854	-6.6771	
1.78161	8.42409	22.8142	-0.182295	-6.64248	
1.8722	8.42409	22.7187	-0.17393	-6.55189	
1.79555	8.50034	22.7733	-0.201621	-6.70479	
1.89311	8.50034	22.7664	-0.189506	-6.60723	
1.93492	8.55579	22.8142	-0.176526	-6.62087	
2.01854	8.56272	22.8006	-0.176238	-6.54418	
2.06732	8.65283	22.8006	-0.193544	-6.58551	
2.08126	8.68056	22.8006	-0.206236	-6.5993	
2.13701	8.70828	22.8006	-0.183449	-6.57128	
2.08823	8.77067	22.8279	-0.200467	-6.68244	
2.18579	8.82612	22.8688	-0.214024	-6.64033	
2.26244	8.88157	22.8825	-0.225562	-6.61913	
2.23457	8.96475	22.8688	-0.229023	-6.73018	
2.29031	9.0202	22.9029	-0.228734	-6.72989	
2.31122	9.09645	22.9166	-0.214601	-6.78523	
2.34606	9.11724	22.9303	-0.213158	-6.77118	
2.33909	9.20735	22.9985	-0.234792	-6.86826	
2.31819	9.33212	23.0053	-0.249791	-7.01393	
2.36697	9.38064	23.0463	-0.250079	-7.01367	
2.38787	9.46382	22.978	-0.235946	-7.07595	
2.38787	9.50541	22.9917	-0.242868	-7.11753	
2.43665	9.60245	23.0258	-0.255848	-7.1658	
2.39484	9.65097	23.0599	-0.245753	-7.25613	
2.44362	9.75494	23.0941	-0.224408	-7.31132	
2.42969	9.80346	23.0941	-0.253541	-7.37378	
2.42969	9.91437	23.1282	-0.257579	-7.48468	
2.45059	9.97675	23.1282	-0.273155	-7.52616	
2.48543	10.0045	23.1555	-0.259598	-7.51904	
2.52028	10.1015	23.176	-0.271424	-7.58124	
2.59693	10.1292	23.1623	-0.273443	-7.53231	
2.61087	10.2471	23.1828	-0.318152	-7.63621	
2.6248	10.2471	23.176	-0.317575	-7.62228	
2.58996	10.3511	23.2033	-0.304018	-7.76109	
2.68055	10.3372	23.2374	-0.312671	-7.65664	
2.72236	10.4204	23.176	-0.299403	-7.698	
2.70843	10.4689	23.2784	-0.319306	-7.76046	
2.81295	10.5035	23.2442	-0.280077	-7.69059	
2.80599	10.6075	23.2442	-0.305172	-7.80153	
2.79205	10.6144	23.2306	-0.329401	-7.8224	
2.84083	10.656	23.2647	-0.342958	-7.81521	
2.88264	10.7046	23.2988	-0.336901	-7.82192	
2.96626	10.76	23.2715	-0.336324	-7.79375	
2.96626	10.8432	23.3125	-0.344112	-7.87693	
2.95929	10.9541	23.3057	-0.35738	-7.9948	
2.98717	10.9541	23.3261	-0.346419	-7.96692	
3.0011	11.0719	23.3261	-0.362284	-8.07082	
2.9802	11.0303	23.3261	-0.376417	-8.05014	
3.01504	11.0927	23.2988	-0.383917	-8.07768	
3.05685	11.1898	23.2852	-0.33517	-8.13291	
3.08473	11.2244	23.3125	-0.350458	-8.13969	
3.02898	11.2729	23.3535	-0.394301	-8.24396	
3.08473	11.3215	23.3808	-0.393724	-8.23674	
3.08473	11.4116	23.3603	-0.371802	-8.32684	
3.07079	11.467	23.3944	-0.391705	-8.39623	
3.08473	11.5433	23.3808	-0.394013	-8.45854	
3.06382	11.6195	23.4217	-0.401512	-8.5557	
2.93839	11.6264	23.3603	-0.382186	-8.68806	
2.97323	11.6819	23.4012	-0.396897	-8.70867	
2.95233	11.7789	23.3671	-0.316998	-8.82662	
2.93142	11.8621	23.4285	-0.37411	-8.9307	
2.90355	11.9938	23.4217	-0.376129	-9.09027	
2.9802	12.0285	23.449	-0.419107	-9.04828	
2.9802	12.1394	23.4354	-0.411896	-9.15918	
2.96626	12.2434	23.4558	-0.377571	-9.27709	
2.92445	12.3265	23.4012	-0.355361	-9.40208	
2.93142	12.4582	23.4422	-0.424011	-9.52681	
2.9802	12.479	23.449	-0.404396	-9.49882	
2.9802	12.5969	23.4558	-0.385359	-9.61666	
3.02898	12.7078	23.4763	-0.416511	-9.67878	
2.97323	12.7494	23.4763	-0.355073	-9.77612	
2.93142	12.8464	23.4422	-0.420549	-9.91497	
2.90355	12.9018	23.4285	-0.415357	-9.9983	
2.89658	12.9504	23.4627	-0.362861	-10.0538	
2.89658	13.0959	23.4763	-0.411031	-10.1994	
2.84083	13.1652	23.4422	-0.364014	-10.3244	
2.86173	13.1791	23.4763	-0.356515	-10.3174	
2.8478	13.2692	23.4354	-0.333151	-10.4214	
2.8478	13.3663	23.3808	-0.413627	-10.5185	
2.86173	13.4148	23.4354	-0.376417	-10.553	
2.78508	13.4564	23.4217	-0.319594	-10.6713	
2.79902	13.5257	23.3876	-0.337766	-10.7267	
2.77811	13.6504	23.4354	-0.382186	-10.8723	
2.74327	13.7336	23.4081	-0.350458	-10.9904	
2.72236	13.8376	23.3944	-0.387667	-11.1152	
2.67358	13.8931	23.3944	-0.342958	-11.2195	
2.6248	13.9832	23.4285	-0.385648	-11.3584	
2.56906	14.0455	23.4558	-0.34065	-11.4765	
2.61087	14.1357	23.4012	-0.33517	-11.5248	
2.61784	14.2396	23.4149	-0.342381	-11.6218	
2.57602	14.302	23.3808	-0.37036	-11.726	
2.4924	14.3783	23.4081	-0.343246	-11.8859	
2.50634	14.3852	23.4354	-0.334016	-11.8788	
2.47846	14.5169	23.4012	-0.317287	-12.0384	
2.48543	14.5377	23.3808	-0.341227	-12.0522	
2.44362	14.5793	23.3466	-0.356226	-12.1356	
2.38787	14.6763	23.3944	-0.280366	-12.2884	
2.40878	14.7387	23.3535	-0.260463	-12.3299	
2.42272	14.7526	23.3671	-0.319883	-12.3298	
2.42272	14.8288	23.3876	-0.323921	-12.4061	
2.36	14.7941	23.3808	-0.313537	-12.4341	
2.35303	14.8912	23.3603	-0.328536	-12.5382	
2.30425	14.8981	23.4012	-0.31671	-12.5939	
2.38091	14.9466	23.3944	-0.337478	-12.5657	
2.26941	15.0506	23.3398	-0.282673	-12.7812	
2.26941	15.0853	23.3671	-0.283827	-12.8159	
2.2485	15.1684	23.3261	-0.322767	-12.9199	
2.20669	15.1477	23.3398	-0.2795	-12.941	
2.24153	15.2378	23.3466	-0.248349	-12.9962	
2.24153	15.2239	23.3603	-0.28325	-12.9824	
2.20669	15.3001	23.3535	-0.267674	-13.0935	
2.15791	15.314	23.3466	-0.334305	-13.1561	
2.13701	15.3001	23.3193	-0.242868	-13.1631	
2.10216	15.3556	23.3944	-0.239118	-13.2534	
2.13701	15.418	23.3535	-0.312383	-13.281	
2.10216	15.4249	23.3876	-0.300557	-13.3228	
2.17185	15.4318	23.3535	-0.275751	-13.26	
2.0952	15.5081	23.3125	-0.272578	-13.4129	
2.0046	15.4734	23.3125	-0.252675	-13.4688	
2.16488	15.4942	23.333	-0.289308	-13.3293	
2.13004	15.5427	23.3398	-0.260175	-13.4127	
2.0952	15.5635	23.3261	-0.280077	-13.4683	
2.10216	15.5982	23.333	-0.297384	-13.496	
2.08126	15.6051	23.3261	-0.27402	-13.5239	
2.08823	15.619	23.3671	-0.284981	-13.5308	
2.13701	15.6675	23.3125	-0.262482	-13.5305	
2.18579	15.6467	23.3193	-0.300845	-13.4609	
2.2276	15.6952	23.3261	-0.310941	-13.4676	
2.23457	15.7091	23.2511	-0.272289	-13.4745	
2.31122	15.7576	23.3057	-0.282673	-13.4464	
2.31122	15.723	23.2715	-0.255848	-13.4117	
2.35303	15.7299	23.2647	-0.263059	-13.3769	
2.29728	15.6814	23.2101	-0.29075	-13.3841	
2.36	15.723	23.2511	-0.29075	-13.363	
2.42272	15.6814	23.2511	-0.306326	-13.2587	
2.40878	15.6467	23.2374	-0.280654	-13.2379	
2.43665	15.6537	23.2511	-0.279789	-13.217	
2.48543	15.619	23.2033	-0.253541	-13.1336	
2.52028	15.6814	23.2442	-0.287288	-13.1611	
2.57602	15.619	23.2033	-0.297672	-13.043	
2.57602	15.5774	23.1828	-0.353342	-13.0014	
2.65965	15.5497	23.1487	-0.380456	-12.89	
2.67358	15.6259	23.1965	-0.351611	-12.9523	
2.69449	15.5289	23.1214	-0.295076	-12.8344	
2.71539	15.5289	23.1965	-0.285269	-12.8135	
2.78508	15.4873	23.1282	-0.35363	-12.7022	
2.79205	15.5012	23.135	-0.351611	-12.7091	
2.85477	15.4457	23.1282	-0.323921	-12.5909	
2.83386	15.3764	23.1214	-0.314402	-12.5425	
2.79205	15.3972	23.1009	-0.359976	-12.6051	
2.82689	15.4111	23.1692	-0.323344	-12.5842	
2.8478	15.3764	23.0804	-0.301711	-12.5286	
2.8687	15.3487	23.1214	-0.360553	-12.48	
2.83386	15.3279	23.0668	-0.353919	-12.494	
2.79902	15.3209	23.1009	-0.366034	-12.5219	
2.82689	15.3071	23.0531	-0.354207	-12.4802	
2.81295	15.2932	23.0872	-0.287	-12.4803	
2.78508	15.2863	23.0736	-0.277481	-12.5012	
2.75024	15.2586	23.0599	-0.311229	-12.5083	
2.67358	15.2724	23.0258	-0.300845	-12.5988	
2.67358	15.2516	23.0872	-0.375264	-12.578	
2.61087	15.2447	23.0941	-0.334593	-12.6338	
2.53421	15.2239	23.0463	-0.320171	-12.6897	
2.58299	15.2724	23.0258	-0.31844	-12.6894	
2.52724	15.2932	22.9917	-0.293057	-12.766	
2.51331	15.3071	23.0326	-0.310364	-12.7938	
2.46453	15.3209	23.0599	-0.308633	-12.8564	
2.53421	15.3209	22.9917	-0.358534	-12.7867	
2.46453	15.3071	22.9985	-0.331132	-12.8426	
2.42272	15.3279	22.9712	-0.280077	-12.9052	
2.42272	15.3348	23.0053	-0.27402	-12.9121	
2.4924	15.314	22.978	-0.303441	-12.8216	
2.39484	15.4111	22.9644	-0.328247	-13.0162	
2.36697	15.4318	22.9371	-0.319594	-13.0649	
2.36	15.4041	22.9439	-0.308345	-13.0441	
2.32516	15.3833	22.9644	-0.289884	-13.0582	
2.28335	15.4388	22.9917	-0.267674	-13.1554	
2.26244	15.5081	22.9234	-0.289019	-13.2457	
2.31819	15.5358	22.9234	-0.334593	-13.2176	
2.26941	15.5427	22.9166	-0.338343	-13.2733	
2.18579	15.5566	22.9507	-0.269405	-13.3708	
2.2276	15.6259	22.9234	-0.273732	-13.3983	
2.16488	15.6467	22.9303	-0.237099	-13.4818	
2.1161	15.7368	22.9234	-0.28152	-13.6207	
2.1161	15.723	22.9303	-0.299403	-13.6069	
2.06035	15.7992	22.9439	-0.25556	-13.7389	
2.07429	15.9309	22.9644	-0.261329	-13.8566	
1.94189	15.8963	22.9098	-0.205659	-13.9544	
1.92098	16.0072	22.9234	-0.243733	-14.0862	
1.89311	16.0626	22.9985	-0.261905	-14.1695	
1.85827	16.1735	22.9576	-0.252675	-14.3153	
1.82342	16.222	22.978	-0.257867	-14.3986	
1.7398	16.2151	22.9917	-0.213447	-14.4753	
1.67011	16.2636	22.9712	-0.202775	-14.5935	
1.64921	16.3468	22.9576	-0.23133	-14.6976	
1.57256	16.3815	22.9303	-0.24258	-14.8089	
1.63527	16.4023	23.0122	-0.211716	-14.767	
1.6283	16.4577	23.019	-0.224119	-14.8294	
1.56559	16.4092	23.0326	-0.173065	-14.8436	
1.50984	16.4924	23.0872	-0.185756	-14.9825	
1.54468	16.5201	23.0941	-0.199602	-14.9754	
1.55862	16.4785	23.0395	-0.204217	-14.9199	
1.56559	16.527	23.0258	-0.20912	-14.9614	
1.53074	16.5409	23.0599	-0.193256	-15.0101	
1.56559	16.5201	23.0872	-0.182007	-14.9545	
1.58649	16.5547	23.0599	-0.20364	-14.9683	
1.65618	16.534	23.0736	-0.20912	-14.8778	
1.64921	16.5755	23.0531	-0.200467	-14.9263	
1.67708	16.5617	23.0463	-0.195563	-14.8846	
1.74677	16.5409	23.0736	-0.204217	-14.7941	
1.7398	16.6033	23.0122	-0.210562	-14.8635	
1.77464	16.6033	23.0531	-0.217774	-14.8286	
1.79555	16.6033	23.0531	-0.217485	-14.8077	
1.8513	16.6033	23.0326	-0.210851	-14.752	
1.86523	16.6241	23.0053	-0.221523	-14.7588	
1.94189	16.6102	22.9507	-0.222389	-14.6683	
1.92098	16.6379	23.0122	-0.230177	-14.7169	
1.95582	16.7142	22.9985	-0.220946	-14.7583	
1.99764	16.7003	23.019	-0.238542	-14.7027	
1.95582	16.6934	23.0326	-0.218062	-14.7376	
1.9837	16.6864	22.978	-0.215754	-14.7027	
2.0046	16.7142	23.0258	-0.226715	-14.7096	
2.01854	16.7766	22.9917	-0.217485	-14.758	
1.96976	16.8597	22.9849	-0.227004	-14.89	
2.02551	16.8251	23.019	-0.219504	-14.7996	
1.95582	16.8667	23.0053	-0.2221	-14.9108	
1.92098	16.9083	23.0326	-0.191525	-14.9873	
1.92795	17.0192	23.0122	-0.192679	-15.0912	
1.89311	17.04	23.0531	-0.223542	-15.1468	
1.84433	17.0885	22.9917	-0.206813	-15.2441	
1.8513	17.1509	23.019	-0.169892	-15.2996	
1.83736	17.2132	23.019	-0.198736	-15.3759	
1.71889	17.2826	23.0463	-0.192102	-15.5637	
1.76071	17.3172	23.0463	-0.193544	-15.5565	
1.64921	17.4004	23.0463	-0.190083	-15.7512	
1.70496	17.4073	23.0258	-0.176815	-15.7024	
1.66315	17.4489	23.0326	-0.155758	-15.7858	
1.65618	17.4905	23.0326	-0.19066	-15.8343	
1.6074	17.5598	23.0804	-0.1722	-15.9524	
1.58649	17.6499	23.0395	-0.171334	-16.0634	
1.57256	17.6846	23.0668	-0.180853	-16.112	
1.53074	17.7192	23.0395	-0.162969	-16.1885	
1.50287	17.7262	23.0395	-0.171623	-16.2233	
1.45409	17.8232	23.0668	-0.159796	-16.3691	
1.37047	17.8509	22.9644	-0.156624	-16.4805	
1.41228	17.9203	23.0395	-0.144797	-16.508	
1.35653	17.9203	23.0122	-0.141336	-16.5637	
1.35653	18.0381	22.9985	-0.141913	-16.6816	
1.31472	18.052	23.0053	-0.141625	-16.7372	
1.25897	18.1767	23.0053	-0.132683	-16.9178	
1.18232	18.2322	23.0258	-0.121433	-17.0499	
1.19625	18.2946	22.9644	-0.113357	-17.0983	
1.18929	18.3569	23.0122	-0.104415	-17.1677	
1.14747	18.4748	22.978	-0.102685	-17.3273	
1.06385	18.5094	22.9439	-0.0969158	-17.4456	
0.98023	18.5857	22.9303	-0.0882625	-17.6055	
0.973261	18.6619	22.9439	-0.0842243	-17.6887	
0.973261	18.6758	23.0053	-0.0741287	-17.7025	
0.938419	18.7728	22.9371	-0.0646101	-17.8344	
0.826922	18.7659	22.9644	-0.0623026	-17.939	
0.806017	18.856	22.9507	-0.0556684	-18.05	
0.778143	18.9392	22.9439	-0.0496111	-18.161	
0.736331	18.9877	22.978	-0.0426884	-18.2514	
0.722394	18.9808	22.9507	-0.0383618	-18.2584	
0.659677	19.057	22.978	-0.032016	-18.3973	
0.624835	19.0293	22.9439	-0.0282662	-18.4045	
0.64574	19.0432	22.9371	-0.0265356	-18.3974	
0.638772	19.1679	22.9917	-0.0219205	-18.5292	
0.603929	19.1818	22.9439	-0.0224974	-18.5779	
0.562118	19.1541	22.9439	-0.0207667	-18.5919	
0.576055	19.1887	22.9849	-0.0178823	-18.6127	
0.520307	19.2095	22.9439	-0.0147094	-18.6892	
0.471527	19.2511	22.9507	-0.0100943	-18.7796	
0.513338	19.2788	22.9849	-0.00980586	-18.7655	
0.443653	19.2996	22.9644	-0.00749831	-18.856	
0.45759	19.3204	22.9371	-0.00749831	-18.8628	
0.429716	19.3689	22.9507	-0.00692143	-18.9392	
0.436684	19.3135	23.019	-0.00634454	-18.8768	
0.443653	19.3343	22.978	-0.00490232	-18.8906	
0.443653	19.3897	22.978	-0.00403699	-18.9461	
0.360031	19.3481	22.9917	-0.00374855	-18.9881	
0.422747	19.3828	22.978	-0.00317166	-18.9601	
0.450621	19.3551	22.9849	-0.00519076	-18.9045	
0.429716	19.3343	22.9234	-0.0034601	-18.9046	
0.415779	19.3828	22.9576	-0.00403699	-18.967	
0.471527	19.3967	22.9507	-0.0034601	-18.9251	
0.471527	19.3759	22.9849	-0.00461388	-18.9043	
0.443653	19.4036	22.9985	-0.00201789	-18.9599	
0.478496	19.3551	22.9166	-0.00288322	-18.8766	
0.499401	19.3204	22.9166	-0.00432543	-18.821	
0.513338	19.3066	22.9576	-0.00461388	-18.7932	
0.527275	19.3343	22.9098	-0.00547921	-18.807	
0.562118	19.3481	22.9576	-0.0060561	-18.786	
0.624835	19.3343	22.9029	-0.00836364	-18.7094	
0.673615	19.3274	22.9029	-0.0100943	-18.6537	
0.7433	19.2442	22.9234	-0.00749831	-18.5009	
0.79208	19.2719	22.9234	-0.0100943	-18.4798	
0.889639	19.2996	22.9371	-0.0132672	-18.41	
0.98023	19.265	22.8552	-0.0164401	-18.2847	
1.0081	19.265	22.9439	-0.0164401	-18.2569	
1.10566	19.2095	22.9098	-0.0138441	-18.1039	
1.16838	19.1887	22.8756	-0.0152863	-18.0203	
1.2311	19.1263	22.9098	-0.0129787	-17.8952	
1.29381	19.1055	22.8961	-0.00980586	-17.8117	
1.3844	19.057	22.9303	-0.0103827	-17.6726	
1.44712	19.0085	22.8688	-0.00894053	-17.5614	
1.50984	18.9392	22.862	-0.00894053	-17.4293	
1.57256	18.9461	22.8825	-0.0106712	-17.3736	
1.60043	18.8491	22.9166	-0.0115365	-17.2486	
1.63527	18.856	22.8688	-0.0138441	-17.2207	
1.69799	18.7243	22.8552	-0.0201898	-17.0263	
1.73283	18.7104	22.8756	-0.0265356	-16.9776	
1.78161	18.7104	22.821	-0.0369195	-16.9288	
1.78858	18.6134	22.7869	-0.0507648	-16.8248	
1.89311	18.5926	22.7528	-0.0663408	-16.6995	
1.91401	18.5025	22.8006	-0.0801861	-16.5885	
2.01157	18.4471	22.7733	-0.0902816	-16.4355	
2.04642	18.3361	22.7733	-0.105281	-16.2897	
2.13701	18.2738	22.7187	-0.115953	-16.1368	
2.1161	18.2183	22.7187	-0.123741	-16.1022	
2.10913	18.1975	22.6913	-0.126914	-16.0884	
2.15791	18.1698	22.705	-0.128068	-16.0119	
2.10216	18.0658	22.746	-0.131529	-15.9637	
2.10913	18.0104	22.7187	-0.127779	-15.9012	
2.07429	17.9896	22.6845	-0.128356	-15.9153	
2.01854	17.9757	22.6913	-0.127202	-15.9572	
1.93492	17.8995	22.6504	-0.128356	-15.9645	
1.8722	17.8371	22.6709	-0.117107	-15.9649	
1.83736	17.7608	22.6777	-0.12201	-15.9235	
1.78161	17.8024	22.746	-0.121722	-16.0208	
1.75374	17.7816	22.6982	-0.122587	-16.0279	
1.67011	17.7331	22.6982	-0.119414	-16.063	
1.57256	17.6846	22.6504	-0.117395	-16.112	
1.50287	17.6638	22.6709	-0.106723	-16.1609	
1.42622	17.6014	22.6777	-0.102396	-16.1752	
1.44712	17.5806	22.6367	-0.107011	-16.1335	
1.3844	17.546	22.6163	-0.11278	-16.1615	
1.31472	17.5044	22.664	-0.104704	-16.1896	
1.30078	17.4905	22.6163	-0.0977811	-16.1897	
1.32169	17.5044	22.5753	-0.0934545	-16.1827	
1.27291	17.4628	22.6436	-0.0951851	-16.1899	
1.19625	17.4281	22.6094	-0.100377	-16.2319	
1.18232	17.4212	22.5617	-0.098358	-16.2389	
1.13354	17.4628	22.5685	-0.0923007	-16.3292	
1.10566	17.4073	22.5685	-0.0850896	-16.3017	
1.08476	17.3796	22.589	-0.0775901	-16.2948	
1.07779	17.3796	22.5617	-0.072975	-16.3018	
1.02901	17.4766	22.5685	-0.0666292	-16.4476	
0.924482	17.4281	22.5548	-0.054803	-16.5036	
0.889639	17.4212	22.5412	-0.047592	-16.5315	
0.840859	17.4281	22.507	-0.0389386	-16.5873	
0.7433	17.4697	22.5344	-0.0340351	-16.7264	
0.7433	17.4697	22.5344	-0.0262471	-16.7264	
0.610898	17.5044	22.4797	-0.0170169	-16.8935	
0.541212	17.546	22.507	-0.0112481	-17.0047	
0.513338	17.5321	22.5412	-0.00547921	-17.0188	
0.415779	17.5806	22.5344	-0.00259477	-17.1648	
0.360031	17.5737	22.5275	-0.0034601	-17.2137	
0.22066	17.6569	22.5412	-0.00317166	-17.4362	
0.199754	17.643	22.548	-0.001441	-17.4432	
0.0812892	17.6707	22.5344	0.00173188	-17.5894	
-0.00233322	17.6291	22.548	0.00750075	-17.6315	
-0.0302074	17.6638	22.5344	0.0155772	-17.694	
-0.0998927	17.6846	22.5275	0.0224998	-17.7845	
-0.162609	17.6083	22.6026	0.0288456	-17.7709	
-0.30198	17.6638	22.548	0.0346144	-17.9658	
-0.343791	17.5875	22.6094	0.0412486	-17.9313	
-0.406508	17.546	22.6231	0.0435562	-17.9525	
-0.524973	17.5667	22.589	0.0452868	-18.0917	
-0.622533	17.5529	22.6231	0.0435562	-18.1754	
-0.734029	17.5252	22.5958	0.0438446	-18.2592	
-0.796746	17.442	22.6709	0.0418255	-18.2387	
-0.943085	17.4004	22.6163	0.0380758	-18.3435	
-0.957022	17.4212	22.589	0.0357682	-18.3782	
-1.03368	17.338	22.6094	0.0323069	-18.3717	
-1.10336	17.2479	22.6231	0.0305762	-18.3513	
-1.1382	17.2132	22.5821	0.026538	-18.3514	
-1.20092	17.1717	22.6231	0.0279802	-18.3726	
-1.34029	17.1301	22.6231	0.0253842	-18.4704	
-1.31939	17.04	22.6026	0.0233651	-18.3593	
-1.43785	16.9845	22.6094	0.0219229	-18.4224	
-1.47269	16.9291	22.5617	0.0210576	-18.4017	
-1.53541	16.936	22.5412	0.0196154	-18.4714	
-1.48663	16.8667	22.5275	0.021346	-18.3533	
-1.61206	16.8251	22.5821	0.0219229	-18.4371	
-1.626	16.832	22.548	0.0245189	-18.458	
-1.73053	16.7627	22.5753	0.0248074	-18.4932	
-1.83506	16.728	22.5548	0.0279802	-18.5631	
-1.94655	16.6795	22.4866	0.0340375	-18.6261	
-1.99533	16.6864	22.5002	0.0372104	-18.6818	
-2.1138	16.6449	22.5344	0.0435562	-18.7587	
-2.26711	16.5686	22.507	0.049325	-18.8357	
-2.3577	16.5617	22.5412	0.0562477	-18.9194	
-2.47616	16.527	22.5275	0.0605743	-19.0032	
-2.67128	16.527	22.4729	0.0585552	-19.1983	
-2.76187	16.4924	22.5344	0.0625934	-19.2542	
-2.9779	16.5132	22.5412	0.0698045	-19.4911	
-3.14514	16.534	22.507	0.0738427	-19.6791	
-3.2427	16.4924	22.4866	0.0712467	-19.7351	
-3.43085	16.4924	22.4866	0.0695161	-19.9232	
-3.56325	16.4646	22.5002	0.0666317	-20.0279	
-3.71656	16.4023	22.507	0.0657663	-20.1188	
-3.86987	16.5132	22.4934	0.0660548	-20.383	
-3.9953	16.4785	22.4593	0.0651894	-20.4738	
-4.1068	16.5132	22.5139	0.0608628	-20.62	
-4.1068	16.4646	22.4797	0.0620166	-20.5714	
-4.16255	16.4646	22.4661	0.0663432	-20.6272	
-4.19739	16.4646	22.4524	0.075285	-20.662	
-4.22526	16.4438	22.4593	0.0799	-20.6691	
-4.2392	16.4785	22.4524	0.0960529	-20.7177	
-4.16255	16.4785	22.4047	0.115955	-20.6411	
-4.02318	16.4716	22.4388	0.133551	-20.4947	
-3.90471	16.4993	22.4251	0.171337	-20.404	
-3.7305	16.5062	22.3978	0.201912	-20.2367	
-3.57022	16.534	22.391	0.240563	-20.1042	
-3.31936	16.5409	22.3774	0.27258	-19.8602	
-3.12424	16.527	22.3978	0.299982	-19.6513	
-2.96396	16.5755	22.4047	0.333153	-19.5395	
-2.72006	16.5547	22.3569	0.353056	-19.2748	
-2.49707	16.6171	22.3364	0.371805	-19.1142	
-2.28104	16.6379	22.3091	0.395169	-18.919	
-1.98837	16.6934	22.3637	0.436705	-18.6817	
-1.77931	16.6518	22.3501	0.427763	-18.4311	
-1.59116	16.7142	22.3296	0.475933	-18.3053	
-1.40301	16.7142	22.3091	0.467568	-18.1172	
-1.18002	16.6795	22.3432	0.500451	-17.8595	
-1.03368	16.6864	22.3159	0.522949	-17.7201	
-0.852494	16.7072	22.3705	0.482279	-17.5597	
-0.678281	16.728	22.3569	0.494393	-17.4063	
-0.455288	16.7211	22.3296	0.509969	-17.1764	
-0.315917	16.6934	22.391	0.529006	-17.0093	
-0.169578	16.6449	22.3569	0.536794	-16.8144	
-0.11383	16.6518	22.3842	0.532756	-16.7656	
0.0603836	16.631	22.3364	0.53391	-16.5706	
0.053415	16.6171	22.3978	0.560158	-16.5637	
0.192786	16.5409	22.3705	0.552659	-16.3481	
0.22066	16.5201	22.3569	0.521507	-16.2994	
0.116132	16.4854	22.3637	0.529006	-16.3693	
0.109163	16.4716	22.3774	0.540256	-16.3624	
-0.00930175	16.3815	22.3637	0.564773	-16.3908	
-0.127767	16.3399	22.391	0.554101	-16.4676	
-0.260169	16.2983	22.391	0.528141	-16.5585	
-0.295012	16.2012	22.3569	0.530737	-16.4963	
-0.343791	16.2012	22.3637	0.511411	-16.545	
-0.336823	16.0903	22.3637	0.512565	-16.4272	
-0.315917	16.0973	22.3569	0.500451	-16.4132	
-0.427414	16.0626	22.3432	0.47651	-16.49	
-0.441351	15.9725	22.3364	0.508239	-16.4139	
-0.483162	15.8893	22.3978	0.486605	-16.3725	
-0.53891	15.8339	22.3501	0.467856	-16.3728	
-0.573753	15.7368	22.3296	0.491797	-16.3106	
-0.629501	15.7022	22.3432	0.486028	-16.3317	
-0.664344	15.5913	22.3501	0.490355	-16.2556	
-0.622533	15.6329	22.391	0.478529	-16.2554	
-0.580722	15.5012	22.3842	0.469299	-16.0819	
-0.559816	15.4041	22.3637	0.432666	-15.9639	
-0.511036	15.3487	22.3978	0.466991	-15.8597	
-0.413477	15.2447	22.3774	0.447665	-15.6582	
-0.441351	15.1615	22.3569	0.470741	-15.6029	
-0.322886	15.0645	22.3978	0.48574	-15.3874	
-0.190484	15.016	22.3501	0.483144	-15.2064	
0.0116038	14.9605	22.3978	0.468722	-14.9489	
0.102195	14.8496	22.3842	0.494393	-14.7474	
0.318219	14.7941	22.391	0.49122	-14.4759	
0.45759	14.711	22.4388	0.49497	-14.2534	
0.638772	14.6555	22.4115	0.474202	-14.0167	
0.826922	14.6347	22.4251	0.432666	-13.8078	
0.79208	14.4961	22.432	0.4543	-13.704	
0.882671	14.3921	22.4388	0.440166	-13.5094	
0.708457	14.302	22.4047	0.481125	-13.5936	
0.569087	14.2327	22.432	0.414494	-13.6636	
0.617866	14.1634	22.4456	0.423725	-13.5455	
0.603929	14.004	22.4456	0.387669	-13.4	
0.680583	13.9346	22.4388	0.432666	-13.2541	
0.715426	13.8584	22.4115	0.42459	-13.143	
0.785111	13.7475	22.4661	0.422859	-12.9624	
0.938419	13.6712	22.4388	0.365747	-12.7328	
0.987199	13.5811	22.4388	0.354498	-12.5939	
1.10566	13.4702	22.4593	0.323923	-12.3646	
1.09173	13.4009	22.4524	0.337192	-12.3092	
1.18929	13.29	22.4661	0.310943	-12.1007	
1.27988	13.2138	22.4388	0.317289	-11.9339	
1.3635	13.1375	22.4456	0.314116	-11.774	
1.45409	13.0474	22.4797	0.28383	-11.5933	
1.53074	12.9989	22.4661	0.251235	-11.4681	
1.55165	12.8672	22.4866	0.249216	-11.3155	
1.53771	12.7979	22.4934	0.222391	-11.2602	
1.55862	12.687	22.4797	0.235948	-11.1284	
1.55165	12.6038	22.4456	0.236525	-11.0521	
1.55862	12.5137	22.5002	0.2097	-10.9551	
1.53074	12.4028	22.4797	0.205661	-10.872	
1.50287	12.2988	22.5002	0.171048	-10.7959	
1.39137	12.2226	22.507	0.191528	-10.8312	
1.39137	12.2018	22.4593	0.188066	-10.8104	
1.33563	12.077	22.5275	0.165279	-10.7414	
1.252	12.0215	22.5139	0.162683	-10.7695	
1.21716	11.9453	22.5548	0.15028	-10.7281	
1.20322	11.9245	22.5548	0.167875	-10.7213	
1.15444	11.8552	22.5412	0.173644	-10.7007	
1.2311	11.7859	22.5685	0.156049	-10.5548	
1.23807	11.7443	22.5617	0.145088	-10.5062	
1.19625	11.6819	22.5958	0.145377	-10.4856	
1.22413	11.675	22.5617	0.159222	-10.4508	
1.23807	11.6542	22.589	0.142204	-10.4161	
1.30078	11.5571	22.589	0.117109	-10.2564	
1.33563	11.5779	22.6026	0.133551	-10.2423	
1.43318	11.5502	22.6504	0.135858	-10.117	
1.45409	11.5225	22.6163	0.126628	-10.0684	
1.45409	11.474	22.5821	0.122878	-10.0199	
1.45409	11.474	22.6231	0.111052	-10.0199	
1.50287	11.4254	22.6504	0.106437	-9.92257	
1.475	11.467	22.5821	0.0969182	-9.99203	
1.48196	11.4601	22.6299	0.0822076	-9.97813	
1.44015	11.467	22.6845	0.0709583	-10.0269	
0.673615	11.4878	22.6845	0.0299993	-10.8142	
0.290345	11.4809	22.6913	-0.00172944	-11.1905	
1.19625	11.4601	22.6845	-0.0302853	-10.2638	
1.10566	11.5086	22.6982	-0.0178823	-10.4029	
1.18929	11.5017	22.6777	-0.0138441	-10.3124	
0.896608	11.4532	22.7323	-0.0199014	-10.5566	
0.638772	11.5017	22.7187	-0.0167285	-10.8629	
0.833891	11.5918	22.7255	-0.0274009	-10.7579	
0.938419	11.6057	22.7187	-0.032016	-10.6672	
1.17535	11.6057	22.7801	-0.0282662	-10.4303	
1.18929	11.6888	22.7869	-0.0311507	-10.4995	
1.252	11.7581	22.821	-0.0245165	-10.5061	
1.33563	11.8136	22.7869	-0.0233627	-10.478	
1.32169	11.8136	22.8006	-0.0201898	-10.4919	
1.37744	11.8483	22.7937	-0.0158632	-10.4708	
1.32866	11.9522	22.8074	-0.021632	-10.6236	
1.39137	12.0077	22.9166	-0.0193245	-10.6163	
1.44712	12.0423	22.8961	-0.0178823	-10.5952	
1.50287	12.0839	22.9029	-0.0196129	-10.5811	
1.55165	12.1186	22.9029	-0.0210552	-10.5669	
1.56559	12.2087	22.9917	-0.0230743	-10.6431	
1.57256	12.2295	22.9712	-0.0274009	-10.6569	
1.57952	12.2434	23.0053	-0.0343236	-10.6638	
1.6283	12.3057	23.0258	-0.0444191	-10.6774	
1.62134	12.3265	23.0395	-0.0527839	-10.7052	
1.73283	12.3958	22.9917	-0.0634563	-10.663	
1.76071	12.4097	23.019	-0.0726865	-10.649	
1.90704	12.4166	23.019	-0.0836474	-10.5096	
1.92098	12.4028	23.0872	-0.0977811	-10.4818	
1.92098	12.4374	23.0736	-0.111338	-10.5165	
1.99764	12.5275	23.1145	-0.125183	-10.5299	
2.0952	12.5206	23.0668	-0.132683	-10.4254	
2.10216	12.5206	23.1009	-0.146816	-10.4184	
2.20669	12.6177	23.1214	-0.154893	-10.411	
2.24153	12.5691	23.135	-0.158643	-10.3276	
2.27638	12.6384	23.1282	-0.164988	-10.3621	
2.29728	12.7008	23.1487	-0.175949	-10.4035	
2.35303	12.687	23.1487	-0.184314	-10.3339	
2.40181	12.7286	23.1623	-0.199602	-10.3267	
2.35303	12.8117	23.176	-0.191525	-10.4587	
2.44362	12.8325	23.1555	-0.212293	-10.3889	
2.4924	12.888	23.1896	-0.229023	-10.3956	
2.4924	12.888	23.1692	-0.232196	-10.3956	
2.52028	12.9642	23.1623	-0.236234	-10.444	
2.50634	13.0197	23.1828	-0.246329	-10.5133	
2.50634	13.0959	23.1828	-0.252387	-10.5896	
2.55512	13.1167	23.2511	-0.254694	-10.5616	
2.6248	13.1652	23.2033	-0.265655	-10.5404	
2.58996	13.2623	23.176	-0.266809	-10.6723	
2.55512	13.3177	23.1555	-0.250079	-10.7626	
2.61087	13.3871	23.2101	-0.240561	-10.7762	
2.54118	13.4356	23.2033	-0.23883	-10.8944	
2.54118	13.5465	23.2238	-0.258156	-11.0053	
2.52724	13.6504	23.2511	-0.266521	-11.1232	
2.52028	13.7406	23.2647	-0.272289	-11.2203	
2.49937	13.7475	23.2238	-0.284981	-11.2481	
2.51331	13.8653	23.2511	-0.241426	-11.352	
2.54118	13.9901	23.2647	-0.284404	-11.4489	
2.54815	14.0525	23.2374	-0.285846	-11.5043	
2.54118	14.1564	23.2647	-0.295076	-11.6153	
2.53421	14.2535	23.2442	-0.304307	-11.7193	
2.56906	14.3436	23.2852	-0.293923	-11.7745	
2.53421	14.4198	23.3125	-0.272001	-11.8856	
2.4715	14.4337	23.2511	-0.295653	-11.9622	
2.54815	14.5238	23.2852	-0.265655	-11.9757	
2.50634	14.6139	23.3057	-0.27402	-12.1076	
2.47846	14.6971	23.2306	-0.27777	-12.2186	
2.46453	14.7595	23.2511	-0.30546	-12.295	
2.44362	14.8427	23.2374	-0.274308	-12.399	
2.38787	14.8773	23.333	-0.26479	-12.4895	
2.38787	14.9536	23.2442	-0.283539	-12.5657	
2.39484	14.9813	23.1896	-0.274308	-12.5865	
2.34606	15.0645	23.2306	-0.300845	-12.7184	
2.31819	15.1754	23.2306	-0.228446	-12.8572	
2.2485	15.21	23.2306	-0.249214	-12.9615	
2.28335	15.3209	23.2374	-0.246906	-13.0376	
2.21366	15.3833	23.2169	-0.285269	-13.1697	
2.21366	15.4942	23.1965	-0.299692	-13.2806	
2.18579	15.5566	23.2442	-0.262482	-13.3708	
2.15094	15.6467	23.2511	-0.232196	-13.4958	
2.0952	15.6883	23.2238	-0.237676	-13.5931	
2.01854	15.8131	23.1828	-0.255271	-13.7945	
1.9837	15.8685	23.2238	-0.226715	-13.8848	
2.01854	15.9378	23.2306	-0.265655	-13.9193	
1.94886	15.9517	23.1828	-0.254117	-14.0029	
1.94886	16.0695	23.2169	-0.250368	-14.1207	
1.89311	16.1042	23.1828	-0.232773	-14.2111	
1.91401	16.1527	23.2374	-0.237676	-14.2387	
1.85827	16.2082	23.2101	-0.249502	-14.3499	
1.81645	16.2498	23.2101	-0.235657	-14.4333	
1.76767	16.2498	23.176	-0.237388	-14.4821	
1.81645	16.3329	23.1965	-0.222389	-14.5165	
1.7398	16.3537	23.2306	-0.209697	-14.6139	
1.7398	16.4023	23.2169	-0.216331	-14.6625	
1.7398	16.4577	23.1623	-0.2221	-14.7179	
1.73283	16.4924	23.1623	-0.219793	-14.7595	
1.71889	16.5062	23.2442	-0.211139	-14.7873	
1.6283	16.5132	23.1487	-0.20364	-14.8849	
1.64224	16.5201	23.1419	-0.199602	-14.8779	
1.66315	16.6241	23.135	-0.196717	-14.9609	
1.64921	16.6241	23.1692	-0.202775	-14.9749	
1.61437	16.7003	23.1419	-0.185179	-15.0859	
1.64224	16.6379	23.1077	-0.191237	-14.9957	
1.64921	16.7904	23.1145	-0.203928	-15.1412	
1.64921	16.7488	23.1487	-0.201044	-15.0996	
1.61437	16.8181	23.1282	-0.182007	-15.2038	
1.58649	16.8043	23.135	-0.177968	-15.2178	
1.62134	16.8389	23.1214	-0.197006	-15.2176	
1.6074	16.832	23.135	-0.205371	-15.2246	
1.56559	16.8528	23.1009	-0.199602	-15.2872	
1.59346	16.9083	23.0599	-0.193833	-15.3148	
1.6074	16.8805	23.135	-0.168161	-15.2731	
1.6283	16.9914	23.1077	-0.167584	-15.3631	
1.64921	16.9776	23.0736	-0.194698	-15.3284	
1.65618	16.9568	23.1077	-0.194698	-15.3006	
1.64224	16.9429	23.0941	-0.187775	-15.3007	
1.71193	16.9706	23.1009	-0.1722	-15.2587	
1.74677	16.9291	23.0463	-0.198159	-15.1823	
1.75374	16.9429	23.0326	-0.213735	-15.1892	
1.78161	17.0053	23.0668	-0.218062	-15.2237	
1.8722	17.04	23.0599	-0.19441	-15.1678	
1.89311	17.0469	23.0599	-0.191237	-15.1538	
1.87917	16.9706	23.019	-0.201332	-15.0915	
1.93492	16.9984	23.0736	-0.206524	-15.0634	
1.90008	16.9498	23.0258	-0.216331	-15.0498	
1.87917	16.9498	22.9644	-0.199602	-15.0707	
1.91401	16.9013	23.0395	-0.191525	-14.9873	
1.90008	16.8875	23.0395	-0.202486	-14.9874	
1.88614	16.9083	23.0463	-0.211428	-15.0221	
1.90008	16.8528	22.9917	-0.210562	-14.9527	
1.92098	16.7974	23.0258	-0.211428	-14.8764	
1.93492	16.7696	23.0053	-0.213158	-14.8347	
2.0046	16.7627	22.978	-0.218062	-14.7581	
2.05338	16.6934	22.9439	-0.235657	-14.64	
2.03248	16.6795	22.9234	-0.231042	-14.647	
2.1161	16.6379	22.9576	-0.229023	-14.5218	
2.13701	16.5478	22.9439	-0.247772	-14.4108	
2.17882	16.5547	22.9303	-0.23508	-14.3759	
2.26941	16.5409	22.9303	-0.25556	-14.2715	
2.29031	16.4577	22.8961	-0.246618	-14.1674	
2.34606	16.4716	22.8688	-0.262771	-14.1255	
2.36697	16.3884	22.862	-0.269982	-14.0214	
2.38787	16.3121	22.8552	-0.242003	-13.9243	
2.36	16.3052	22.8142	-0.282096	-13.9452	
2.41575	16.3121	22.862	-0.253541	-13.8964	
2.38787	16.2082	22.8483	-0.265078	-13.8203	
2.38787	16.229	22.8347	-0.252387	-13.8411	
2.38091	16.1597	22.8006	-0.250079	-13.7787	
2.39484	16.1735	22.8074	-0.262194	-13.7787	
2.33213	16.125	22.7869	-0.269982	-13.7929	
2.26244	16.1527	22.821	-0.23883	-13.8903	
2.26941	16.1042	22.8279	-0.224119	-13.8348	
2.21366	16.0903	22.821	-0.255271	-13.8767	
2.17882	16.0626	22.8279	-0.26854	-13.8838	
2.18579	16.0626	22.8347	-0.261905	-13.8768	
2.20669	16.0557	22.7801	-0.255848	-13.849	
2.12307	16.028	22.7937	-0.215178	-13.9049	
2.04642	16.0557	22.7869	-0.239118	-14.0093	
2.08823	16.028	22.862	-0.26854	-13.9397	
2.03248	16.0141	22.7801	-0.234503	-13.9816	
2.02551	16.0072	22.7937	-0.2296	-13.9817	
2.0046	16.0557	22.8347	-0.234503	-14.0511	
1.91401	15.9864	22.705	-0.204505	-14.0724	
1.99067	16.0557	22.7733	-0.234503	-14.065	
1.92795	16.028	22.7187	-0.239407	-14.1	
1.91401	16.021	22.7391	-0.207678	-14.107	
1.94189	16.0349	22.7118	-0.221235	-14.093	
1.94189	16.021	22.746	-0.234215	-14.0791	
1.90704	16.0557	22.7187	-0.24258	-14.1486	
1.92098	16.0695	22.705	-0.219793	-14.1486	
1.8722	16.1111	22.6709	-0.242003	-14.2389	
1.83039	16.0973	22.6982	-0.186622	-14.2669	
1.82342	16.1666	22.6777	-0.204217	-14.3432	
1.79555	16.1666	22.6367	-0.23335	-14.371	
1.76767	16.1943	22.6709	-0.219504	-14.4266	
1.76767	16.2359	22.6572	-0.194698	-14.4682	
1.70496	16.2498	22.664	-0.190083	-14.5448	
1.66315	16.3191	22.6026	-0.167873	-14.6559	
1.59346	16.3468	22.6572	-0.1647	-14.7533	
1.54468	16.3953	22.6845	-0.180853	-14.8506	
1.46803	16.4924	22.6777	-0.1647	-15.0243	
1.43318	16.5547	22.6504	-0.165854	-15.1216	
1.3635	16.5617	22.6913	-0.145951	-15.1982	
1.34956	16.6449	22.6982	-0.139605	-15.2953	
1.29381	16.6934	22.6777	-0.14249	-15.3996	
1.252	16.6795	22.7187	-0.131817	-15.4275	
1.252	16.7696	22.746	-0.137298	-15.5176	
1.18929	16.735	22.7733	-0.131529	-15.5457	
1.12657	16.8459	22.7255	-0.114222	-15.7193	
1.13354	16.8944	22.7255	-0.115953	-15.7609	
1.08476	16.9083	22.6845	-0.106723	-15.8235	
1.06385	16.9221	22.7869	-0.104992	-15.8583	
1.07779	16.936	22.7664	-0.109607	-15.8582	
1.03598	16.9152	22.7801	-0.106146	-15.8792	
1.03598	16.9221	22.7801	-0.0943198	-15.8861	
1.04992	16.9429	22.8006	-0.0937429	-15.893	
1.0081	16.9291	22.7937	-0.0943198	-15.9209	
1.04992	16.936	22.8415	-0.0954736	-15.8861	
1.08476	16.9221	22.8415	-0.102685	-15.8374	
1.12657	16.9013	22.7733	-0.1073	-15.7748	
1.0987	16.9291	22.7733	-0.108165	-15.8304	
1.21019	16.9291	22.8006	-0.113645	-15.7189	
1.23807	16.8944	22.8347	-0.112492	-15.6563	
1.25897	16.9152	22.8347	-0.120857	-15.6562	
1.30078	16.9013	22.8006	-0.119414	-15.6005	
1.39834	16.9152	22.7733	-0.120857	-15.5168	
1.44015	16.8736	22.8074	-0.122299	-15.4334	
1.45409	16.9152	22.7664	-0.129798	-15.4611	
1.51681	16.9637	22.7801	-0.130087	-15.4469	
1.50984	16.9221	22.7664	-0.13326	-15.4123	
1.59346	16.9083	22.7869	-0.135856	-15.3148	
1.57256	16.9984	22.705	-0.137875	-15.4258	
1.65618	16.9291	22.7596	-0.130952	-15.2729	
1.63527	16.9706	22.7869	-0.141048	-15.3354	
1.55862	16.9568	22.7596	-0.136144	-15.3982	
1.63527	16.9706	22.7596	-0.140182	-15.3354	
1.67011	17.04	22.7391	-0.14249	-15.3698	
1.68405	17.0885	22.7255	-0.137875	-15.4044	
1.64921	17.0607	22.7187	-0.131817	-15.4115	
1.59346	17.1231	22.7528	-0.127779	-15.5297	
1.56559	17.1855	22.7733	-0.124895	-15.6199	
1.55862	17.1994	22.8074	-0.124895	-15.6408	
1.51681	17.2202	22.7664	-0.118549	-15.7034	
1.4959	17.3034	22.7323	-0.107011	-15.8075	
1.44015	17.3449	22.8142	-0.105858	-15.9048	
1.44015	17.4143	22.7733	-0.106723	-15.9741	
1.35653	17.442	22.8279	-0.113934	-16.0855	
1.32866	17.4905	22.8074	-0.105858	-16.1618	
1.3635	17.5529	22.821	-0.0995118	-16.1894	
1.30078	17.6014	22.8415	-0.0972042	-16.3006	
1.27988	17.6707	22.8415	-0.0995118	-16.3908	
1.26594	17.6846	22.8415	-0.0989349	-16.4186	
1.19625	17.7192	22.8142	-0.0960504	-16.523	
1.18929	17.7262	22.7937	-0.0948967	-16.5369	
1.16838	17.8301	22.8142	-0.0845127	-16.6618	
1.18232	17.8301	22.8142	-0.0741287	-16.6478	
1.09173	17.8717	22.8552	-0.0735519	-16.78	
1.06385	17.8995	22.8074	-0.0726865	-16.8356	
0.994167	17.9826	22.7937	-0.0706674	-16.9885	
0.952356	18.0104	22.7391	-0.0623026	-17.058	
0.917513	18.0727	22.7255	-0.0530724	-17.1552	
0.924482	18.149	22.7733	-0.0507648	-17.2245	
0.875702	18.1906	22.7528	-0.047592	-17.3149	
0.875702	18.2668	22.8074	-0.0458613	-17.3911	
0.799048	18.35	22.7664	-0.0409578	-17.551	
0.771174	18.3985	22.7596	-0.0340351	-17.6274	
0.701489	18.4263	22.7255	-0.0302853	-17.7248	
0.722394	18.4956	22.7391	-0.0245165	-17.7732	
0.624835	18.5649	22.7596	-0.0181707	-17.9401	
0.596961	18.6689	22.7323	-0.0126903	-18.0719	
0.534244	18.6758	22.7391	-0.00778676	-18.1415	
0.520307	18.7936	22.705	-0.00547921	-18.2733	
0.485464	18.752	22.7664	-0.00317166	-18.2666	
0.380936	18.856	22.7187	-0.00259477	-18.4751	
0.332156	18.8421	22.7118	-0.00288322	-18.51	
0.234597	18.8976	22.7323	-0.00201789	-18.663	
0.185817	18.96	22.6777	0.000578104	-18.7742	
0.150975	18.9946	22.6845	0.00432787	-18.8437	
0.102195	19.0362	22.705	0.00923141	-18.934	
0.0743206	19.0224	22.705	0.0118274	-18.948	
0.0325094	19.0501	22.6913	0.0118274	-19.0176	
-0.051113	19.0501	22.6982	0.016154	-19.1012	
-0.0371759	19.0847	22.7528	0.0178847	-19.1219	
-0.120798	19.0917	22.6913	0.0207691	-19.2125	
-0.176547	19.1333	22.7187	0.01875	-19.3098	
-0.197452	19.1818	22.7255	0.0175963	-19.3792	
-0.322886	19.1541	22.7187	0.0193269	-19.4769	
-0.308949	19.1402	22.7118	0.0190385	-19.4491	
-0.336823	19.1818	22.7187	0.0126927	-19.5186	
-0.378634	19.1887	22.6982	0.0106736	-19.5674	
-0.406508	19.2095	22.6845	0.00894296	-19.616	
-0.455288	19.1957	22.7391	0.0106736	-19.6509	
-0.455288	19.2164	22.705	0.0103852	-19.6717	
-0.504068	19.1749	22.6572	0.00750075	-19.6789	
-0.518005	19.2442	22.6982	0.00923141	-19.7622	
-0.53891	19.1749	22.6845	0.00490476	-19.7138	
-0.559816	19.161	22.7118	0.00750075	-19.7208	
-0.58769	19.1471	22.705	0.00605853	-19.7348	
-0.594659	19.1402	22.6777	0.00548164	-19.7349	
-0.629501	19.2095	22.6845	0.00461631	-19.839	
-0.615564	19.1957	22.6777	0.00288565	-19.8112	
-0.629501	19.1541	22.6572	0.00461631	-19.7836	
-0.63647	19.0709	22.6777	0.00288565	-19.7074	
-0.629501	19.1471	22.6026	0.00173188	-19.7766	
-0.650407	19.1402	22.6777	0.000578104	-19.7906	
-0.664344	19.1055	22.664	-0.00057567	-19.7699	
-0.629501	19.0847	22.6299	-0.00057567	-19.7143	
-0.594659	19.057	22.6777	-0.00490232	-19.6517	
-0.552847	19.0432	22.6163	-0.00720987	-19.596	
-0.552847	19.0224	22.6231	-0.0080752	-19.5752	
-0.455288	19.0085	22.6094	-0.00692143	-19.4638	
-0.35076	19.0016	22.6231	-0.0103827	-19.3523	
-0.336823	18.9669	22.589	-0.0112481	-19.3037	
-0.274106	18.9323	22.5958	-0.00836364	-19.2064	
-0.204421	18.8629	22.589	-0.00836364	-19.0674	
-0.197452	18.8283	22.6231	-0.00778676	-19.0257	
-0.120798	18.8006	22.6026	-0.00461388	-18.9214	
-0.0998927	18.7312	22.6094	-0.00172944	-18.8311	
-0.0720186	18.7104	22.5412	-0.00317166	-18.7825	
-0.0789871	18.6203	22.5275	-0.0060561	-18.6993	
-0.0162703	18.5233	22.5617	-0.00576765	-18.5396	
0.053415	18.5233	22.5821	-0.00576765	-18.4699	
0.0325094	18.5025	22.5412	-0.00720987	-18.47	
0.0812892	18.3639	22.5617	-0.00720987	-18.2826	
0.17188	18.3431	22.548	-0.00749831	-18.1712	
0.199754	18.2114	22.5275	-0.00951742	-18.0116	
0.297314	18.1767	22.5139	-0.0121134	-17.8794	
0.346093	18.0866	22.4593	-0.0129787	-17.7405	
0.464559	18.0312	22.4524	-0.0178823	-17.5666	
0.576055	17.9411	22.4115	-0.0170169	-17.365	
0.666646	17.8856	22.4251	-0.0184592	-17.219	
0.736331	17.8232	22.4115	-0.0170169	-17.0869	
0.736331	17.6915	22.3842	-0.0132672	-16.9552	
0.826922	17.5875	22.3842	-0.00922897	-16.7606	
0.840859	17.5667	22.3569	-0.00663298	-16.7259	
0.903576	17.4628	22.391	-0.00201789	-16.5592	
0.882671	17.3935	22.3364	-0.00057567	-16.5108	
0.868733	17.3103	22.3569	0.00115499	-16.4416	
0.764205	17.2271	22.3501	0.0109621	-16.4629	
0.673615	17.1023	22.3159	0.0233651	-16.4287	
0.583024	17.0677	22.3023	0.0357682	-16.4847	
0.464559	16.9914	22.3228	0.0458637	-16.5269	
0.325188	16.9568	22.3091	0.0499019	-16.6316	
0.164912	16.8597	22.3432	0.0559592	-16.6948	
0.039478	16.8459	22.2886	0.0602859	-16.8064	
-0.120798	16.7072	22.3023	0.0637472	-16.828	
-0.204421	16.6241	22.2681	0.0666317	-16.8285	
-0.413477	16.5409	22.3023	0.0698045	-16.9544	
-0.552847	16.5132	22.2613	0.0672085	-17.066	
-0.734029	16.4161	22.2545	0.0628819	-17.1501	
-0.859463	16.3329	22.2613	0.0651894	-17.1924	
-1.04761	16.2983	22.234	0.0631703	-17.3459	
-1.15214	16.229	22.2272	0.0669201	-17.3811	
-1.31939	16.1735	22.1589	0.0663432	-17.4929	
-1.46573	16.0626	22.1453	0.0666317	-17.5283	
-1.65388	15.9794	22.1726	0.0677854	-17.6333	
-1.82809	16.021	22.1453	0.0709583	-17.8491	
-1.98837	15.924	22.1112	0.0735543	-17.9123	
-2.07199	15.8824	22.1316	0.0790347	-17.9544	
-2.2462	15.7923	22.1248	0.0790347	-18.0385	
-2.43435	15.7438	22.118	0.0773041	-18.1781	
-2.66431	15.723	22.0361	0.0845151	-18.3873	
-2.78975	15.7091	22.0224	0.0899956	-18.4989	
-3.01274	15.6398	22.0634	0.09288	-18.6525	
-3.17302	15.5635	22.0224	0.0969182	-18.7366	
-3.38904	15.5427	21.9337	0.0934569	-18.9318	
-3.62597	15.5289	21.9746	0.0995142	-19.1549	
-3.81412	15.4526	21.9405	0.100956	-19.2668	
-3.9953	15.4734	21.9269	0.103841	-19.4687	
-4.27404	15.4388	21.9269	0.10211	-19.7128	
-4.36464	15.3695	21.8586	0.102399	-19.7341	
-4.51097	15.3764	21.8518	0.107591	-19.8874	
-4.60853	15.314	21.8722	0.109898	-19.9225	
-4.73397	15.2932	21.8586	0.12259	-20.0272	
-4.81759	15.2516	21.8245	0.126916	-20.0692	
-4.91515	15.2794	21.8381	0.149415	-20.1945	
-4.76881	15.1269	21.8449	0.170183	-19.8957	
-4.73397	15.0922	21.8108	0.187489	-19.8262	
-4.55279	15.016	21.763	0.227295	-19.5687	
-4.45523	15.0021	21.7903	0.257581	-19.4573	
-4.20436	14.9258	21.7221	0.289022	-19.1302	
-3.89774	14.8635	21.7767	0.328827	-18.7612	
-3.61203	14.7734	21.7357	0.348441	-18.3854	
-3.40298	14.7526	21.7016	0.386804	-18.1555	
-3.09636	14.6347	21.7357	0.387958	-17.7311	
-2.734	14.6139	21.7016	0.418821	-17.3479	
-2.3786	14.4961	21.6811	0.430647	-16.8747	
-2.04411	14.4476	21.7016	0.449396	-16.4917	
-1.68175	14.3644	21.6811	0.470164	-16.0461	
-1.43088	14.3228	21.6675	0.494393	-15.7537	
-1.1173	14.2743	21.6743	0.503335	-15.3916	
-0.77584	14.2535	21.6197	0.494682	-15.0293	
-0.531942	14.1149	21.6743	0.53391	-14.6468	
-0.232295	14.0871	21.6197	0.458626	-14.3194	
0.0255409	14.0317	21.5651	0.55612	-14.0061	
0.234597	13.9485	21.5583	0.550351	-13.7139	
0.541212	13.9	21.5856	0.525545	-13.3588	
0.771174	13.8376	21.5856	0.485163	-13.0664	
0.882671	13.7821	21.5241	0.512565	-12.8995	
0.7433	13.7683	21.5583	0.543717	-13.025	
0.534244	13.7128	21.49	0.518046	-13.1786	
0.40881	13.6643	21.5241	0.477664	-13.2555	
0.262471	13.6227	21.5173	0.443916	-13.3603	
0.304282	13.5811	21.5037	0.463818	-13.2769	
0.276408	13.5118	21.4968	0.463241	-13.2354	
0.213691	13.491	21.4832	0.457473	-13.2773	
0.164912	13.4217	21.4968	0.440166	-13.2568	
0.116132	13.4564	21.5105	0.435262	-13.3402	
0.164912	13.3801	21.4149	0.421129	-13.2152	
0.206723	13.4078	21.4763	0.445069	-13.2011	
0.0603836	13.3108	21.4695	0.432955	-13.2504	
0.0185724	13.3593	21.4559	0.42459	-13.3408	
-0.11383	13.3663	21.4763	0.37267	-13.4801	
-0.260169	13.3593	21.4627	0.364882	-13.6195	
-0.364697	13.3385	21.49	0.386515	-13.7032	
-0.434382	13.3385	21.4695	0.379304	-13.7729	
-0.559816	13.3455	21.4286	0.390842	-13.9053	
-0.566784	13.3663	21.4149	0.409302	-13.933	
-0.650407	13.3732	21.4559	0.381612	-14.0236	
-0.77584	13.3524	21.4422	0.392573	-14.1282	
-0.678281	13.4217	21.4149	0.358536	-14.1	
-0.692218	13.4078	21.4286	0.379881	-14.1001	
-0.657375	13.4009	21.4422	0.40786	-14.0583	
-0.580722	13.4009	21.4627	0.405841	-13.9816	
-0.545879	13.3732	21.4286	0.436128	-13.9191	
-0.469225	13.394	21.449	0.448819	-13.8632	
-0.329854	13.3593	21.4081	0.435262	-13.6892	
-0.232295	13.3177	21.449	0.443627	-13.55	
-0.141704	13.2761	21.4354	0.455453	-13.4179	
-0.0232388	13.2761	21.449	0.476798	-13.2994	
0.053415	13.2692	21.449	0.494105	-13.2158	
0.241565	13.2969	21.4217	0.488336	-13.0554	
0.387905	13.2623	21.3808	0.492374	-12.8744	
0.499401	13.2554	21.4354	0.523814	-12.756	
0.603929	13.2415	21.3876	0.53939	-12.6376	
0.50637	13.2276	21.449	0.531026	-12.7213	
0.387905	13.1999	21.4559	0.5117	-12.812	
0.276408	13.1999	21.4286	0.499008	-12.9235	
0.102195	13.1652	21.449	0.448531	-13.063	
0.0325094	13.186	21.4832	0.478529	-13.1535	
0.1231	13.1583	21.4695	0.488336	-13.0352	
0.0882577	13.1029	21.449	0.494682	-13.0146	
0.137037	13.1167	21.4627	0.487759	-12.9797	
0.192786	13.0821	21.4695	0.481413	-12.8893	
0.227628	13.0613	21.4832	0.477375	-12.8336	
0.157943	13.0405	21.4763	0.532468	-12.8825	
0.234597	12.992	21.531	0.544582	-12.7574	
0.185817	12.992	21.49	0.49122	-12.8061	
0.144006	12.8949	21.4968	0.481413	-12.7509	
0.0185724	12.8533	21.5378	0.497566	-12.8348	
0.0673521	12.784	21.5583	0.477664	-12.7167	
-0.00930175	12.7494	21.5241	0.492663	-12.7587	
0.0325094	12.6592	21.5378	0.461799	-12.6267	
0.0255409	12.6592	21.5651	0.463818	-12.6337	
0.116132	12.5899	21.5651	0.485163	-12.4738	
0.0464465	12.5137	21.5787	0.514584	-12.4672	
0.157943	12.479	21.606	0.485163	-12.3211	
0.227628	12.4374	21.6265	0.457184	-12.2098	
0.360031	12.4166	21.606	0.457761	-12.0566	
0.394873	12.3265	21.6402	0.495835	-11.9317	
0.394873	12.2711	21.6129	0.505931	-11.8762	
0.422747	12.2434	21.6675	0.478529	-11.8206	
0.450621	12.181	21.6675	0.500451	-11.7303	
0.576055	12.1117	21.6333	0.49122	-11.5356	
0.548181	12.1047	21.6402	0.477952	-11.5565	
0.576055	12.0215	21.7084	0.466991	-11.4455	
0.555149	11.9106	21.6948	0.460934	-11.3555	
0.603929	11.8968	21.6743	0.458338	-11.2928	
0.736331	11.8829	21.7016	0.455165	-11.1466	
0.673615	11.7997	21.7289	0.418533	-11.1261	
0.673615	11.6888	21.7153	0.45978	-11.0152	
0.666646	11.6542	21.7562	0.447089	-10.9875	
0.7433	11.5641	21.7767	0.461511	-10.8208	
0.79208	11.5502	21.8108	0.431224	-10.7581	
0.785111	11.5155	21.763	0.430936	-10.7304	
0.812985	11.4185	21.8176	0.407572	-10.6055	
0.847828	11.3838	21.8176	0.408437	-10.536	
0.903576	11.3145	21.8381	0.380458	-10.411	
0.987199	11.2591	21.8176	0.399784	-10.2719	
1.04992	11.2314	21.8791	0.374689	-10.1814	
1.05688	11.2106	21.8313	0.379881	-10.1537	
1.09173	11.1274	21.8859	0.350748	-10.0357	
1.18232	11.065	21.8586	0.358825	-9.88268	
1.12657	10.961	21.9269	0.338345	-9.83445	
1.16838	10.9472	21.9473	0.358536	-9.77878	
1.19625	10.8709	21.8791	0.365459	-9.67466	
1.20322	10.8571	21.9473	0.365171	-9.65383	
1.252	10.6907	21.9883	0.297098	-9.43869	
1.27988	10.6491	21.9815	0.310078	-9.36923	
1.31472	10.5798	21.9951	0.29681	-9.26507	
1.26594	10.4758	22.0088	0.320462	-9.20988	
1.30775	10.3926	22.0088	0.283253	-9.08489	
1.41925	10.3996	21.9951	0.267677	-8.98032	
1.55165	10.2956	22.0019	0.270561	-8.74395	
1.65618	10.2609	22.0292	0.232198	-8.60476	
1.69799	10.2055	22.0156	0.213161	-8.5075	
1.77464	10.1292	22.0634	0.213738	-8.3546	
1.87917	10.0946	22.0429	0.190085	-8.21542	
1.96279	10.0391	22.0497	0.197297	-8.07634	
1.97673	9.93516	22.0975	0.182586	-7.95843	
2.07429	9.9005	22.1043	0.146819	-7.82621	
2.16488	9.85891	22.1112	0.130089	-7.69403	
2.10913	9.80346	22.118	0.110763	-7.69433	
2.12307	9.74801	22.1521	0.100091	-7.62494	
2.10216	9.69256	22.1589	0.108168	-7.59039	
2.10913	9.6579	22.1316	0.090284	-7.54877	
1.96976	9.59552	22.1794	0.0784578	-7.62576	
0.116132	9.59552	22.2204	0.0106736	-9.47939	
-0.768872	9.50541	22.2135	-0.0666292	-10.2743	
1.07082	9.45689	22.234	-0.0885509	-8.38607	
1.18232	9.44302	22.234	-0.0767247	-8.26071	
1.37744	9.36678	22.3296	-0.0343236	-7.98934	
0.98023	9.32519	22.2886	-0.0709559	-8.34496	
0.499401	9.24894	22.3091	-0.0816283	-8.74954	
0.806017	9.2836	22.3228	-0.0842243	-8.47758	
0.638772	9.24894	22.3228	-0.0839358	-8.61017	
0.896608	9.29746	22.3296	-0.0700905	-8.40086	
0.778143	9.20735	22.3569	-0.0741287	-8.42921	
0.799048	9.22815	22.3091	-0.0824936	-8.4291	
0.959324	9.22122	22.3842	-0.078167	-8.26189	
0.987199	9.20735	22.3705	-0.0807629	-8.22015	
0.98023	9.1727	22.3569	-0.0738403	-8.19247	
0.959324	9.24201	22.3432	-0.0822052	-8.28269	
1.08476	9.24201	22.4115	-0.0946082	-8.15725	
1.1196	9.23508	22.4115	-0.0899931	-8.11548	
1.21716	9.27667	22.391	-0.0897047	-8.05951	
1.23807	9.2836	22.4934	-0.0865318	-8.04553	
1.3635	9.2836	22.4593	-0.0954736	-7.9201	
1.37047	9.32519	22.4251	-0.0989349	-7.95472	
1.3844	9.35291	22.4797	-0.100666	-7.96851	
1.48196	9.38757	22.5412	-0.104415	-7.90561	
1.48196	9.35291	22.5617	-0.101242	-7.87095	
1.54468	9.42916	22.5344	-0.108165	-7.88448	
1.63527	9.45689	22.5275	-0.110473	-7.82162	
1.68405	9.57472	22.6026	-0.113645	-7.89067	
1.67011	9.58859	22.6163	-0.118261	-7.91847	
1.69102	9.67176	22.6163	-0.117395	-7.98074	
1.73283	9.73415	22.6436	-0.114511	-8.00132	
1.77464	9.74801	22.6436	-0.110761	-7.97337	
1.79555	9.88664	22.6504	-0.121145	-8.09109	
1.81645	9.90744	22.7323	-0.130952	-8.09098	
1.78858	9.94902	22.7528	-0.134702	-8.16044	
1.82342	10.0114	22.8142	-0.13499	-8.18799	
1.85827	10.0877	22.7596	-0.13499	-8.22939	
1.89311	10.1154	22.8279	-0.137009	-8.22227	
1.84433	10.2609	22.8483	-0.148259	-8.41661	
1.87917	10.2817	22.8347	-0.154316	-8.40257	
1.87917	10.358	22.8825	-0.157777	-8.47881	
1.88614	10.4204	22.9098	-0.158931	-8.53423	
1.90008	10.4966	22.9303	-0.160662	-8.59654	
1.89311	10.5105	22.9098	-0.167584	-8.61737	
1.91401	10.5937	23.0122	-0.179411	-8.67964	
1.9837	10.6699	23.0258	-0.188064	-8.6862	
2.01157	10.7115	23.0326	-0.185468	-8.69992	
1.99764	10.76	23.0599	-0.186045	-8.76237	
2.07429	10.7877	23.0668	-0.203351	-8.71345	
2.08126	10.8501	23.1214	-0.210562	-8.76886	
2.10913	10.8986	23.1419	-0.213735	-8.78951	
2.22063	10.9264	23.1487	-0.229311	-8.70574	
2.25547	10.9888	23.1214	-0.236234	-8.73328	
2.31122	11.0581	23.135	-0.24431	-8.74685	
2.37394	11.0789	23.2033	-0.22585	-8.70492	
2.38787	11.1759	23.2033	-0.242868	-8.78803	
2.36697	11.1967	23.2033	-0.250079	-8.82973	
2.45059	11.1759	23.2169	-0.246329	-8.72531	
2.4715	11.2729	23.2374	-0.264213	-8.80145	
2.47846	11.3145	23.2442	-0.280654	-8.83607	
2.52724	11.3145	23.2511	-0.273443	-8.78729	
2.55512	11.4046	23.2374	-0.263059	-8.84952	
2.58299	11.4462	23.3193	-0.267386	-8.86324	
2.63874	11.4948	23.292	-0.285558	-8.85601	
2.57602	11.5017	23.3261	-0.284981	-8.92566	
2.61784	11.6264	23.292	-0.289308	-9.00861	
2.68055	11.6195	23.3261	-0.330843	-8.93897	
2.70146	11.675	23.3466	-0.296519	-8.97351	
2.69449	11.7443	23.3876	-0.27777	-9.0498	
2.72933	11.7928	23.3671	-0.292769	-9.06347	
2.75721	11.8552	23.3876	-0.278924	-9.09798	
2.72236	11.9037	23.3876	-0.287865	-9.18135	
2.75721	11.9869	23.3535	-0.327671	-9.22968	
2.71539	12.077	23.3808	-0.306326	-9.3616	
2.72236	12.1671	23.4422	-0.265944	-9.44474	
2.79205	12.181	23.3876	-0.335747	-9.38892	
2.71539	12.2919	23.4285	-0.353054	-9.57648	
2.70146	12.3889	23.4149	-0.303153	-9.68746	
2.77811	12.4652	23.4763	-0.284692	-9.68705	
2.78508	12.5414	23.49	-0.355073	-9.75633	
2.75024	12.6384	23.5241	-0.377283	-9.88821	
2.68752	12.7563	23.4968	-0.347573	-10.0688	
2.63874	12.8256	23.5378	-0.276328	-10.1869	
2.66662	12.9504	23.5309	-0.272578	-10.2838	
2.74327	13.0266	23.5173	-0.338343	-10.2833	
2.68752	13.1098	23.5173	-0.328247	-10.4223	
2.63874	13.1999	23.5241	-0.356803	-10.5612	
2.65965	13.2692	23.5378	-0.327671	-10.6096	
2.64571	13.3455	23.5173	-0.293634	-10.6998	
2.61784	13.4286	23.5173	-0.303153	-10.8108	
2.61784	13.394	23.5446	-0.282385	-10.7761	
2.61087	13.5395	23.5582	-0.301134	-10.9287	
2.6039	13.6366	23.5514	-0.335459	-11.0327	
2.56209	13.7128	23.5582	-0.321613	-11.1507	
2.54118	13.7614	23.5241	-0.293634	-11.2202	
2.56209	13.8445	23.5378	-0.311229	-11.2824	
2.55512	13.9069	23.5309	-0.294788	-11.3518	
2.58996	14.0109	23.5446	-0.350458	-11.4209	
2.52028	14.1149	23.5582	-0.34267	-11.5946	
2.52724	14.1772	23.5378	-0.328536	-11.65	
2.48543	14.205	23.5104	-0.299115	-11.7195	
2.43665	14.302	23.5309	-0.273155	-11.8654	
2.40878	14.3852	23.5104	-0.343535	-11.9764	
2.49937	14.503	23.5241	-0.289596	-12.0037	
2.40878	14.5169	23.5514	-0.280943	-12.1081	
2.40878	14.6624	23.5104	-0.293634	-12.2537	
2.35303	14.7248	23.5309	-0.326517	-12.3718	
2.36	14.7941	23.5514	-0.31844	-12.4341	
2.30425	14.8357	23.5992	-0.280654	-12.5315	
2.29728	14.8981	23.5309	-0.285269	-12.6008	
2.25547	15.009	23.5309	-0.28325	-12.7536	
2.17185	15.0229	23.5104	-0.308633	-12.851	
2.16488	15.0783	23.5446	-0.280654	-12.9135	
2.19972	15.113	23.5378	-0.25556	-12.9133	
2.13004	15.1754	23.5104	-0.273443	-13.0453	
2.15094	15.1823	23.5514	-0.257867	-13.0314	
2.14398	15.3279	23.5582	-0.278924	-13.1839	
2.10913	15.314	23.5309	-0.29248	-13.2049	
2.10216	15.3695	23.5173	-0.285846	-13.2673	
2.13701	15.3972	23.5309	-0.2296	-13.2602	
2.04642	15.418	23.49	-0.240561	-13.3716	
2.08823	15.5012	23.5446	-0.255848	-13.4129	
2.10913	15.515	23.5173	-0.257867	-13.4059	
2.0046	15.5705	23.49	-0.265944	-13.5659	
1.9837	15.6051	23.5241	-0.27402	-13.6214	
2.05338	15.6606	23.5719	-0.269982	-13.6072	
2.0046	15.6952	23.5104	-0.223831	-13.6906	
1.99067	15.7576	23.4968	-0.232773	-13.767	
2.03248	15.7368	23.5104	-0.277481	-13.7044	
2.02551	15.7715	23.5378	-0.244887	-13.746	
2.0046	15.8339	23.5582	-0.25729	-13.8293	
1.96976	15.8339	23.5241	-0.252964	-13.8641	
1.91401	15.8824	23.5446	-0.241714	-13.9684	
1.91401	15.9032	23.5719	-0.213158	-13.9892	
1.96976	15.8547	23.5446	-0.208255	-13.8849	
1.88614	15.8824	23.49	-0.263636	-13.9963	
1.90008	15.9794	23.5309	-0.198736	-14.0794	
1.92795	16.021	23.5241	-0.205947	-14.0931	
1.97673	16.0002	23.5582	-0.218927	-14.0235	
1.92098	16.0002	23.5173	-0.248925	-14.0792	
1.93492	15.9794	23.5104	-0.251521	-14.0445	
1.94189	16.021	23.49	-0.239407	-14.0791	
1.99764	16.021	23.4968	-0.226715	-14.0234	
2.06732	16.0487	23.5241	-0.25181	-13.9814	
2.06035	16.1042	23.4422	-0.25181	-14.0438	
2.10913	16.1042	23.4968	-0.264501	-13.9951	
2.14398	16.0765	23.5104	-0.273732	-13.9325	
2.13004	16.0834	23.4968	-0.244599	-13.9534	
2.12307	16.0695	23.4831	-0.22585	-13.9465	
2.21366	16.021	23.4695	-0.242291	-13.8074	
2.15791	16.0557	23.4695	-0.261329	-13.8978	
2.13004	16.028	23.4695	-0.271424	-13.8979	
2.14398	15.9794	23.449	-0.229888	-13.8355	
2.20669	15.9378	23.449	-0.237965	-13.7312	
2.13701	15.9586	23.449	-0.23508	-13.8216	
2.17185	15.9171	23.4558	-0.248925	-13.7452	
2.27638	15.9032	23.4217	-0.243733	-13.6268	
2.27638	15.8893	23.4012	-0.314979	-13.6129	
2.27638	15.7784	23.4422	-0.262194	-13.502	
2.38091	15.7923	23.3671	-0.260463	-13.4114	
2.39484	15.7784	23.4217	-0.260463	-13.3836	
2.40878	15.7507	23.3261	-0.291615	-13.3419	
2.46453	15.7299	23.3398	-0.29623	-13.2654	
2.55512	15.7022	23.3261	-0.288731	-13.1471	
2.61087	15.7022	23.333	-0.301999	-13.0913	
2.55512	15.6329	23.3603	-0.261905	-13.0777	
2.61784	15.6606	23.3535	-0.271136	-13.0427	
2.71539	15.5774	23.3671	-0.306326	-12.862	
2.63177	15.5705	23.3125	-0.307768	-12.9387	
2.68055	15.5497	23.2988	-0.299692	-12.8691	
2.65268	15.4942	23.3193	-0.339785	-12.8416	
2.6248	15.4804	23.3125	-0.305172	-12.8556	
2.57602	15.5081	23.3535	-0.274308	-12.9321	
2.64571	15.4804	23.3261	-0.269982	-12.8347	
2.58299	15.5081	23.3193	-0.291038	-12.9251	
2.56209	15.4734	23.3193	-0.329113	-12.9113	
2.52028	15.4388	23.3261	-0.313537	-12.9185	
2.45756	15.4942	23.3057	-0.265078	-13.0367	
2.4715	15.5012	23.2715	-0.278635	-13.0297	
2.40181	15.4804	23.2784	-0.284981	-13.0786	
2.36697	15.4388	23.3057	-0.326228	-13.0718	
2.29031	15.4804	23.2715	-0.299403	-13.1901	
2.35303	15.4457	23.2988	-0.275174	-13.0927	
2.27638	15.4388	23.2715	-0.236811	-13.1624	
2.25547	15.4804	23.2647	-0.245464	-13.2249	
2.30425	15.4388	23.292	-0.288442	-13.1345	
2.26941	15.515	23.2647	-0.289596	-13.2456	
2.2276	15.5081	23.2306	-0.279789	-13.2805	
2.21366	15.5012	23.2169	-0.271713	-13.2875	
2.16488	15.4804	23.2579	-0.278347	-13.3155	
2.13701	15.5566	23.2511	-0.299692	-13.4196	
2.12307	15.6121	23.2169	-0.263925	-13.489	
2.08823	15.5358	23.2101	-0.296519	-13.4476	
2.17185	15.619	23.135	-0.266521	-13.4471	
2.02551	15.619	23.1828	-0.23508	-13.5935	
1.96279	15.6121	23.1555	-0.260463	-13.6493	
1.94886	15.6675	23.1692	-0.253541	-13.7187	
1.97673	15.6606	23.1555	-0.260175	-13.6839	
1.92795	15.7507	23.1487	-0.275751	-13.8227	
1.91401	15.7576	23.1555	-0.274885	-13.8436	
1.90008	15.7715	23.176	-0.231619	-13.8714	
1.79555	15.8547	23.1419	-0.228446	-14.0591	
1.79555	15.9171	23.1282	-0.243445	-14.1215	
1.74677	15.9171	23.1828	-0.203063	-14.1703	
1.69799	16.0626	23.1419	-0.200755	-14.3646	
1.6283	16.028	23.1965	-0.199313	-14.3997	
1.6074	16.1597	23.2306	-0.200755	-14.5523	
1.57256	16.1319	23.1282	-0.171623	-14.5594	
1.50287	16.1735	23.2101	-0.182007	-14.6706	
1.44712	16.2844	23.1965	-0.181718	-14.8373	
1.42622	16.3468	23.2579	-0.165565	-14.9206	
1.42622	16.3884	23.1896	-0.162681	-14.9622	
1.30078	16.4369	23.2238	-0.1647	-15.1361	
1.25897	16.43	23.2579	-0.1572	-15.171	
1.21019	16.4646	23.2647	-0.145374	-15.2544	
1.20322	16.5062	23.2579	-0.138452	-15.303	
1.16838	16.5201	23.2647	-0.124029	-15.3517	
1.15444	16.5547	23.2784	-0.115088	-15.4003	
1.14051	16.6102	23.2442	-0.124029	-15.4697	
1.11263	16.5409	23.292	-0.134125	-15.4283	
1.17535	16.5894	23.2715	-0.127779	-15.4141	
1.1196	16.5825	23.2852	-0.122299	-15.4629	
1.14747	16.6171	23.2852	-0.127202	-15.4697	
1.16141	16.5894	23.2784	-0.124029	-15.428	
1.12657	16.6033	23.2988	-0.130375	-15.4767	
1.18929	16.5547	23.2852	-0.128356	-15.3655	
1.22413	16.5686	23.2647	-0.128933	-15.3445	
1.25897	16.5894	23.333	-0.13326	-15.3304	
1.30775	16.5686	23.2715	-0.132106	-15.2609	
1.31472	16.5547	23.2852	-0.128068	-15.24	
1.35653	16.5617	23.2647	-0.135279	-15.2052	
1.34259	16.5686	23.2579	-0.136721	-15.226	
1.40531	16.5963	23.2579	-0.140182	-15.191	
1.45409	16.5963	23.2647	-0.143355	-15.1422	
1.48196	16.6033	23.2238	-0.138452	-15.1213	
1.50287	16.6241	23.2715	-0.143644	-15.1212	
1.55165	16.6171	23.2647	-0.135856	-15.0655	
1.51681	16.6033	23.2306	-0.132683	-15.0865	
1.57256	16.631	23.2306	-0.132106	-15.0584	
1.53771	16.6171	23.2306	-0.128645	-15.0794	
1.4959	16.7072	23.2169	-0.138163	-15.2113	
1.46803	16.7142	23.2442	-0.136433	-15.2461	
1.52378	16.6934	23.2306	-0.132394	-15.1696	
1.44712	16.728	23.2101	-0.124318	-15.2809	
1.475	16.7142	23.2647	-0.114222	-15.2392	
1.45409	16.7835	23.2374	-0.116241	-15.3294	
1.44712	16.8043	23.2579	-0.114222	-15.3572	
1.34259	16.8528	23.2442	-0.105858	-15.5102	
1.32169	16.9776	23.2511	-0.098358	-15.6559	
1.28685	16.9498	23.292	-0.0914354	-15.663	
1.24503	17.0192	23.3057	-0.09057	-15.7741	
1.22413	17.0607	23.292	-0.0891278	-15.8366	
1.18232	17.1439	23.2511	-0.0822052	-15.9616	
1.1196	17.1855	23.2579	-0.0807629	-16.0659	
1.14051	17.2202	23.3125	-0.0804745	-16.0797	
1.11263	17.2687	23.2647	-0.0859549	-16.1561	
1.13354	17.3241	23.3398	-0.0830705	-16.1906	
1.08476	17.3449	23.2715	-0.0770132	-16.2602	
1.08476	17.3865	23.3193	-0.0726865	-16.3018	
1.05688	17.4212	23.3125	-0.0686483	-16.3643	
1.04295	17.4697	23.2852	-0.0695137	-16.4268	
1.03598	17.5252	23.292	-0.0646101	-16.4892	
0.987199	17.5598	23.2579	-0.0568221	-16.5726	
0.952356	17.5667	23.2579	-0.0507648	-16.6144	
0.945387	17.6291	23.292	-0.0455728	-16.6837	
0.889639	17.6915	23.2442	-0.0438422	-16.8019	
0.847828	17.7262	23.2715	-0.0374964	-16.8783	
0.757237	17.7816	23.2238	-0.0328813	-17.0244	
0.736331	17.844	23.2852	-0.0248049	-17.1077	
0.708457	17.9411	23.2579	-0.0201898	-17.2326	
0.64574	17.9411	23.2101	-0.0147094	-17.2953	
0.617866	18.0242	23.292	-0.0121134	-17.4064	
0.548181	18.1005	23.2511	-0.00778676	-17.5523	
0.492433	18.1837	23.2647	-0.00547921	-17.6912	
0.415779	18.1351	23.2169	-0.00115256	-17.7194	
0.387905	18.2183	23.2852	-0.00115256	-17.8304	
0.318219	18.3084	23.2511	-0.00317166	-17.9902	
0.248534	18.35	23.2238	-0.00259477	-18.1015	
0.213691	18.3708	23.2579	0.00230876	-18.1571	
0.137037	18.4193	23.2784	0.00865452	-18.2823	
0.102195	18.4332	23.2647	0.0124043	-18.331	
-0.00233322	18.4678	23.2579	0.0184616	-18.4702	
-0.0580815	18.4609	23.3193	0.021346	-18.519	
-0.120798	18.4609	23.2442	0.0253842	-18.5817	
-0.176547	18.5233	23.3125	0.0302878	-18.6998	
-0.197452	18.5025	23.2988	0.0288456	-18.7	
-0.295012	18.5926	23.2511	0.0302878	-18.8876	
-0.378634	18.5649	23.2647	0.0279802	-18.9435	
-0.462256	18.5995	23.2647	0.0268265	-19.0618	
-0.476194	18.6065	23.2647	0.0250958	-19.0827	
-0.53891	18.5926	23.2306	0.0190385	-19.1315	
-0.594659	18.5787	23.3466	0.0170194	-19.1734	
-0.63647	18.6619	23.2852	0.0173078	-19.2984	
-0.650407	18.6273	23.2715	0.0155772	-19.2777	
-0.727061	18.6827	23.3193	0.0138465	-19.4098	
-0.692218	18.6203	23.3125	0.0132696	-19.3126	
-0.810683	18.5995	23.3603	0.0138465	-19.4102	
-0.810683	18.6342	23.292	0.0132696	-19.4449	
-0.852494	18.5995	23.3603	0.0129812	-19.452	
-0.957022	18.6411	23.3057	0.0121158	-19.5982	
-0.929148	18.5995	23.3057	0.00836608	-19.5287	
-0.963991	18.6065	23.3261	0.00980829	-19.5705	
-1.01974	18.5441	23.3261	0.00980829	-19.5638	
-0.998834	18.6134	23.3808	0.00951985	-19.6122	
-1.04064	18.5926	23.3261	0.00980829	-19.6333	
-1.06852	18.551	23.3603	0.00865452	-19.6195	
-1.15214	18.5441	23.2784	0.00375098	-19.6962	
-1.08246	18.5025	23.3398	0.0051932	-19.585	
-1.10336	18.4609	23.3398	0.000866547	-19.5643	
-1.1173	18.4678	23.3466	0.000866547	-19.5851	
-1.11033	18.4678	23.3261	0.00028966	-19.5782	
-1.11033	18.5164	23.3398	-0.001441	-19.6267	
-1.07549	18.4401	23.3739	-0.00201789	-19.5156	
-1.06852	18.3847	23.3944	-0.00461388	-19.4532	
-1.04064	18.3777	23.3193	-0.00663298	-19.4184	
-1.02671	18.3569	23.3535	-0.00634454	-19.3836	
-0.915211	18.3569	23.3535	-0.00836364	-19.2722	
-0.880368	18.2599	23.3739	-0.0080752	-19.1403	
-0.817652	18.2738	23.3739	-0.00778676	-19.0914	
-0.803715	18.2322	23.3466	-0.0060561	-19.0359	
-0.77584	18.1975	23.3535	-0.00403699	-18.9734	
-0.692218	18.1143	23.3535	-0.00374855	-18.8066	
-0.664344	18.0866	23.3808	-0.00634454	-18.751	
-0.650407	18.0242	23.3535	-0.00663298	-18.6746	
-0.622533	17.9757	23.3261	-0.0060561	-18.5982	
-0.566784	17.8648	23.3466	-0.00547921	-18.4316	
-0.497099	17.8579	23.3535	-0.00692143	-18.355	
-0.455288	17.7678	23.3739	-0.00865209	-18.2231	
-0.371666	17.7123	23.3466	-0.00980586	-18.084	
-0.308949	17.6361	23.3057	-0.011825	-17.945	
-0.232295	17.6638	23.3057	-0.0173054	-17.8961	
-0.0371759	17.6083	23.3398	-0.0227858	-17.6455	
0.0812892	17.5113	23.3057	-0.0305738	-17.43	
0.227628	17.4905	23.3261	-0.0383618	-17.2629	
0.366999	17.4143	23.3057	-0.0461497	-17.0473	
0.520307	17.3519	23.3261	-0.0516302	-16.8316	
0.673615	17.2687	23.292	-0.0559568	-16.5951	
0.840859	17.1994	23.2715	-0.0542261	-16.3585	
0.994167	17.1509	23.2784	-0.0496111	-16.1567	
1.10566	17.0954	23.3125	-0.0444191	-15.9897	
1.22413	16.9984	23.2852	-0.0366311	-15.7742	
1.32169	16.9291	23.3535	-0.0265356	-15.6074	
1.37744	16.8597	23.2988	-0.0167285	-15.4823	
1.39834	16.8597	23.2988	-0.0103827	-15.4614	
1.475	16.8181	23.333	-0.0034601	-15.3432	
1.50287	16.7766	23.3398	-0.00259477	-15.2737	
1.54468	16.7835	23.3808	-0.00403699	-15.2388	
1.52378	16.7003	23.3603	-0.00288322	-15.1765	
1.42622	16.7072	23.4081	-0.00461388	-15.281	
1.44015	16.6795	23.3808	-0.00288322	-15.2394	
1.31472	16.6449	23.3944	-0.00461388	-15.3301	
1.27988	16.6033	23.4149	-0.00576765	-15.3234	
1.23807	16.5617	23.3808	-0.00663298	-15.3236	
1.21716	16.527	23.4149	-0.0080752	-15.3099	
1.16838	16.527	23.3876	-0.00922897	-15.3586	
1.17535	16.4993	23.3876	-0.0121134	-15.3239	
1.16141	16.5062	23.3671	-0.0152863	-15.3448	
1.18929	16.5132	23.4012	-0.0173054	-15.3239	
1.16838	16.4646	23.4012	-0.0207667	-15.2963	
1.22413	16.4924	23.4217	-0.0239396	-15.2682	
1.18929	16.4092	23.4149	-0.0256702	-15.2199	
1.21019	16.4854	23.4285	-0.0271125	-15.2752	
1.21019	16.4023	23.3671	-0.0291316	-15.1921	
1.20322	16.4508	23.3808	-0.0285547	-15.2476	
1.2311	16.4438	23.3876	-0.0276894	-15.2127	
1.21019	16.43	23.4422	-0.0274009	-15.2198	
1.21716	16.4854	23.4217	-0.0274009	-15.2683	
1.15444	16.5062	23.449	-0.0271125	-15.3518	
1.13354	16.4854	23.3671	-0.0233627	-15.3519	
1.11263	16.5132	23.4285	-0.0196129	-15.4005	
1.09173	16.5617	23.4285	-0.0184592	-15.47	
1.04992	16.6033	23.4217	-0.0152863	-15.5534	
0.959324	16.631	23.4831	-0.0132672	-15.6717	
0.924482	16.6171	23.4627	-0.0106712	-15.6927	
0.896608	16.7142	23.49	-0.00865209	-15.8176	
0.840859	16.7627	23.49	-0.0060561	-15.9218	
0.757237	16.7904	23.4763	-0.00749831	-16.0332	
0.715426	16.7974	23.5104	-0.0060561	-16.0819	
0.673615	16.8251	23.5241	-0.00547921	-16.1515	
0.617866	16.8389	23.5651	-0.00490232	-16.2211	
0.562118	16.9429	23.5651	-0.00403699	-16.3808	
0.492433	16.9152	23.5992	-0.00259477	-16.4228	
0.401842	16.9568	23.5719	-0.001441	-16.5549	
0.415779	16.9706	23.6265	0.000866547	-16.5549	
0.297314	17.0053	23.5924	0.0051932	-16.708	
0.290345	17.0261	23.6401	0.0051932	-16.7357	
0.199754	17.0677	23.6606	0.00894296	-16.8679	
0.199754	17.0261	23.6606	0.00807763	-16.8263	
0.213691	17.0538	23.722	0.0106736	-16.8401	
0.178849	17.0261	23.7084	0.0112505	-16.8472	
0.17188	17.0053	23.722	0.00951985	-16.8334	
0.0882577	17.04	23.7494	0.00836608	-16.9517	
0.144006	17.0053	23.7494	0.00375098	-16.8613	
0.130069	17.0261	23.7698	0.000866547	-16.896	
0.150975	17.0192	23.7698	-0.00057567	-16.8682	
0.199754	16.9984	23.7562	-0.00519076	-16.7986	
0.17188	16.9914	23.804	-0.00634454	-16.8196	
0.164912	16.9429	23.8313	-0.00865209	-16.778	
0.26944	16.9429	23.7903	-0.00865209	-16.6735	
0.339125	16.9568	23.804	-0.00836364	-16.6177	
0.353062	16.9291	23.8586	-0.00663298	-16.576	
0.40881	16.9776	23.8586	-0.00634454	-16.5688	
0.513338	16.936	23.8654	-0.00865209	-16.4226	
0.527275	16.9637	23.8859	-0.00692143	-16.4364	
0.624835	16.9083	23.879	-0.00663298	-16.2834	
0.708457	16.8875	23.8381	-0.00720987	-16.179	
0.729363	16.8805	23.8586	-0.00692143	-16.1512	
0.785111	16.8736	23.9132	-0.00720987	-16.0885	
0.771174	16.9152	23.9063	-0.00461388	-16.144	
0.861765	16.936	23.9132	-0.00490232	-16.0742	
0.861765	16.9498	23.9063	-0.00403699	-16.0881	
0.917513	16.9914	23.9405	-0.00461388	-16.0739	
0.910545	16.9291	23.92	-0.00403699	-16.0185	
0.903576	16.9291	23.9268	-0.00317166	-16.0255	
0.93145	17.0192	23.9336	-0.00230633	-16.0877	
0.889639	17.0607	23.9268	0.00144343	-16.1711	
0.847828	17.0607	23.9814	0.00028966	-16.2129	
0.826922	17.0538	24.036	0.00317409	-16.2269	
0.778143	17.1439	24.0156	0.00403943	-16.3658	
0.819954	17.1717	24.0224	0.00461631	-16.3517	
0.799048	17.2132	24.0565	0.0051932	-16.4142	
0.7433	17.2756	24.0906	0.00230876	-16.5323	
0.778143	17.2964	24.0565	0.00028966	-16.5183	
0.729363	17.338	24.0497	0.00202032	-16.6086	
0.736331	17.3935	24.077	-0.00057567	-16.6571	
0.7433	17.442	24.0975	-0.00230633	-16.6987	
0.750268	17.5044	24.1452	-0.00288322	-16.7541	
0.736331	17.4836	24.0906	-0.00288322	-16.7472	
0.799048	17.5945	24.1384	-0.0034601	-16.7954	
0.771174	17.643	24.1111	-0.0034601	-16.8718	
0.673615	17.6499	24.193	-0.00547921	-16.9763	
0.826922	17.6846	24.1999	-0.00778676	-16.8577	
0.7433	17.7608	24.193	-0.00461388	-17.0175	
0.833891	17.7955	24.2272	-0.001441	-16.9616	
0.861765	17.8094	24.2545	-0.00172944	-16.9476	
0.750268	17.8995	24.234	-0.00288322	-17.1492	
0.736331	17.9272	24.2408	1.21691E-006	-17.1909	
0.785111	17.9965	24.2203	-0.00172944	-17.2114	
0.736331	18.0589	24.2135	0.00346254	-17.3226	
0.708457	18.0935	24.2476	0.00144343	-17.3851	
0.687552	18.1698	24.2408	0.00230876	-17.4822	
0.610898	18.1837	24.2408	0.00288565	-17.5728	
0.673615	18.253	24.2681	0.00230876	-17.5794	
0.64574	18.2807	24.2954	0.00346254	-17.635	
0.555149	18.35	24.2886	0.00778919	-17.7949	
0.485464	18.4055	24.3227	0.0072123	-17.92	
0.485464	18.4609	24.3432	0.0103852	-17.9754	
0.422747	18.5025	24.3978	0.0121158	-18.0798	
0.366999	18.5302	24.3773	0.0144234	-18.1632	
0.360031	18.5926	24.4046	0.0158656	-18.2326	
0.283377	18.6203	24.3569	0.016154	-18.337	
0.227628	18.6619	24.4388	0.016154	-18.4343	
0.150975	18.7451	24.4797	0.0173078	-18.5941	
0.137037	18.7104	24.5275	0.0170194	-18.5734	
0.102195	18.7798	24.4797	0.0138465	-18.6776	
0.0603836	18.7867	24.4797	0.0126927	-18.7263	
0.0255409	18.8352	24.5411	0.0124043	-18.8097	
-0.0232388	18.8629	24.507	0.00980829	-18.8862	
-0.0859556	18.8699	24.5138	0.00923141	-18.9558	
-0.127767	18.8976	24.548	0.00461631	-19.0254	
-0.11383	18.9115	24.5821	0.00432787	-19.0253	
-0.120798	18.9669	24.5958	0.00259721	-19.0877	
-0.176547	18.9738	24.6026	0.00317409	-19.1504	
-0.197452	18.9323	24.6231	0.00259721	-19.1297	
-0.0859556	18.9323	24.6299	0.00375098	-19.0182	
-0.176547	18.9461	24.6435	0.00461631	-19.1227	
-0.155641	19.0362	24.6367	0.00144343	-19.1919	
-0.218358	19.0362	24.6777	0.00259721	-19.2546	
-0.239263	19.0224	24.6367	0.00230876	-19.2616	
-0.218358	19.0778	24.7254	0.000866547	-19.2962	
-0.211389	19.0709	24.7596	1.21691E-006	-19.2823	
-0.232295	19.1125	24.7391	0.00259721	-19.3448	
-0.239263	19.0847	24.7664	-0.00057567	-19.324	
-0.211389	19.1125	24.7459	-0.001441	-19.3239	
-0.211389	19.0847	24.7527	-0.00172944	-19.2961	
-0.211389	19.0917	24.821	-0.00172944	-19.3031	
-0.169578	19.1194	24.7937	-0.000287227	-19.289	
-0.218358	19.0847	24.8347	-0.00172944	-19.3031	
-0.2532	19.1263	24.8347	-0.00201789	-19.3795	
-0.162609	19.1402	24.7937	-0.00403699	-19.3028	
-0.176547	19.0986	24.8483	-0.00317166	-19.2752	
-0.120798	19.1055	24.8278	-0.00288322	-19.2263	
-0.120798	19.1471	24.8142	-0.00374855	-19.2679	
-0.148672	19.1333	24.8688	-0.00634454	-19.2819	
-0.06505	19.1125	24.821	-0.00720987	-19.1775	
0.0255409	19.0709	24.8483	-0.00663298	-19.0453	
0.039478	19.1194	24.9097	-0.00749831	-19.0799	
0.144006	19.1125	24.862	-0.00720987	-18.9685	
0.192786	19.064	24.8756	-0.0109596	-18.8712	
0.22066	19.0917	24.8893	-0.0109596	-18.871	
0.339125	19.0432	24.8961	-0.011825	-18.704	
0.40881	19.0154	24.8893	-0.0129787	-18.6066	
0.499401	19.0224	24.8893	-0.0115365	-18.523	
0.562118	18.9669	24.9234	-0.011825	-18.4048	
0.548181	18.9323	24.9439	-0.0100943	-18.3841	
